frame_start	frame_end	parasubiculum	HATA	fimbria	hippocampal_fissure	HP_tail	presubiculum-head	presubiculum-body	subiculum-head	subiculum-body	CA1-head	CA1-body	CA3-head	CA3-body	CA4-head	CA4-body	GC-ML-DG-head	GC-ML-DG-body	molecular_layer_HP-head	molecular_layer_HP-body	Lateral-nucleus	Basal-nucleus	Central-nucleus	Medial-nucleus	Cortical-nucleus	Accessory-Basal-nucleus	Corticoamygdaloid-transitio	Anterior-amygdaloid-area-AAA	Paralaminar-nucleus
0	30	1631.69851	152.37886	245.37035	642.42479	129.72003	654.82626	609.96603	182.25797	263.94411	534.17071	313.25469	333.93563	271.19296	227.46594	348.60389	318.25137	360.86626	455.71613	344.38851	153.58303	401.96548	71.85151	179.26769	97.36559	179.69155	361.47346	479.21479	726.73711
30	60	1724.14488	919.97005	800.00799	1148.98695	674.92903	1136.73636	1218.21425	502.36246	1122.38247	854.54485	734.78044	1292.19817	1046.02642	943.25759	1098.56958	973.81913	1052.15042	800.96111	982.05075	525.98832	934.6208	956.49586	917.17257	606.28857	789.31396	901.35989	2015.46566	1085.31185
60	90	3081.26399	1036.18272	1496.61358	2059.04764	1421.35891	2397.45719	1795.65164	1458.50942	1133.00348	1411.29088	1006.08577	2694.00106	1338.03303	1795.22833	1420.61221	1805.7383	1386.25262	1760.38439	1324.96585	986.82401	1561.42068	1516.25344	1025.56089	1159.09988	1138.98354	1362.99013	2410.51923	1665.33922
90	120	2106.41481	2263.63322	2767.43072	2343.79262	2384.10647	1920.46219	3741.55434	1470.94997	2754.27766	1716.27804	1986.86781	2801.48421	2291.09846	2349.5896	2768.07645	2117.56358	2740.08463	1821.45756	2620.56869	1520.25291	1870.49723	2004.66328	1750.52004	1476.71474	1711.02614	2282.79769	2541.44774	2209.14776
120	150	3125.76225	2024.39148	2600.29073	2976.72403	2555.96794	2981.2145	3236.2531	2686.74643	2154.41334	2412.39236	1976.31956	3093.7203	2682.26063	3027.01123	2931.51481	2917.70002	2753.21542	2741.79347	2511.53075	1699.9198	2053.09768	1473.41992	1561.99369	1502.80704	1695.52777	2377.7836	2081.64244	2368.72446
150	180	3270.73851	1975.61698	2481.61873	2032.86357	1994.99359	2796.16609	2720.64864	2315.79037	1713.57422	2375.53719	1585.02391	2566.4182	2295.84336	2366.16934	2129.15825	2407.87192	2129.13268	2547.27255	2132.86224	1321.22432	2222.4565	3618.10845	3048.81827	3129.96408	2695.09122	1796.45915	2389.64762	2608.39424
180	240	2705.85771	1725.51557	2457.08769	2670.6359	2611.5482	2783.74599	2625.25132	2311.37486	2133.90468	2437.15979	2405.31973	3150.39425	2828.69896	3146.99473	2515.16233	2945.4898	2537.66087	2682.97931	2616.85068	1946.4465	2702.13086	2676.0011	2538.48954	1936.66779	2353.73955	1992.75949	2462.98586	2552.73167
240	300	2097.2296	1877.55275	2228.18424	2311.97238	2536.48799	2047.73838	1795.25645	2070.72893	1996.40221	2187.46833	2185.59849	2476.23994	2344.47906	2393.48723	2274.40713	2302.77119	2228.18336	2278.99047	2157.15982	2158.95194	2153.5358	2340.19841	2424.99535	1946.14642	2040.34047	2061.50817	2714.02811	2065.40196
300	360	2572.21671	2696.37966	2404.51765	2732.31467	2385.25075	2078.52062	2440.4426	1582.24265	2299.54209	2092.63137	1919.45593	3461.5805	2216.83307	2300.96913	2631.6408	2226.83715	2561.43743	2042.29433	2347.98039	1760.31584	2129.46237	2186.95801	1928.28723	1929.94441	2297.19983	2101.64655	2615.77747	1984.08652
360	480	1968.1058	1812.66416	2198.99734	2429.11044	2165.58965	1816.25095	2176.94627	2015.23312	1975.20511	2130.40244	2092.52675	2907.87482	2239.10201	2491.03875	2221.2696	2390.62026	2188.69853	2216.76344	2181.06857	1959.31578	2163.3584	2485.07656	2448.39355	2215.42499	2220.64978	1952.40984	2339.5396	2185.39297
480	600	2217.26939	1881.88865	2344.23685	2168.66035	1810.61111	2080.19257	2091.03976	1934.80541	2006.71715	2211.74264	2029.51803	2757.20306	2418.42176	2471.32741	2511.95288	2370.71365	2393.07579	2343.58885	2318.61629	1777.63356	2003.37857	2369.48523	2276.19785	2356.70842	2172.983	1903.48086	2030.35301	1965.97534
600	900	1986.44289	1780.66666	2085.24846	2168.26598	1932.78876	2132.99886	2104.51509	1969.83065	2005.10838	1925.1193	1898.58613	2580.33991	2071.65784	2502.34674	2189.60239	2337.3658	2128.60892	2176.36361	2093.66233	1981.74377	2118.72729	2303.07469	2213.16204	2089.68597	2031.69588	1874.89602	2017.53256	2049.60374
900	1200	1815.82122	2087.93868	1999.24494	1959.38912	1859.43645	1805.31722	1966.75911	1765.70954	1784.24712	1748.87683	1718.5787	2349.04747	2111.93892	1916.43079	2124.18543	1852.94866	2038.03979	1864.17838	1974.59004	1680.90076	1784.24203	2211.28155	2205.41466	2292.13045	2103.91634	1948.14306	2015.93965	1596.62627
1200	1500	1587.74381	1550.51533	1805.3672	1824.55913	1594.07576	1676.15437	1876.23089	1879.49328	1698.52107	1739.45314	1541.91559	2029.93639	1812.41216	1909.8102	1817.03316	1871.36084	1781.25115	1880.04705	1790.42625	1637.18817	1803.66812	2080.57696	1825.62769	1814.89658	2127.34594	1903.37615	1852.67096	1670.26476
1500	1800	1642.17086	1570.49307	1780.29299	1676.69647	1501.76043	1618.38906	1664.61617	1587.52869	1493.95635	1629.75827	1402.75383	2074.67981	1665.66849	1853.35509	1697.61171	1755.77662	1653.78842	1717.06445	1602.1177	1542.13832	1762.18287	1621.1872	1787.78722	1850.83457	1902.01753	1854.01758	1608.32068	1611.40418
1800	2100	1367.04364	1685.70403	1679.66647	1581.31685	1429.3012	1489.4889	1716.57803	1569.21976	1508.43448	1519.35898	1392.57364	1903.28841	1597.65881	1869.1506	1624.57011	1740.68769	1587.74177	1637.74006	1563.92494	1497.52678	1757.76151	2255.0896	2007.54563	1942.19807	1884.44551	1789.12147	1914.09437	1583.51343
2100	2400	1725.03913	1698.87374	1682.73214	1557.93622	1437.3243	1628.08847	1641.23172	1372.20049	1454.65342	1483.05634	1605.53095	1890.74787	1778.19372	1649.7354	1762.43231	1598.70034	1713.66401	1590.55846	1708.784	1424.72798	1402.22851	1911.06722	1621.25095	1903.02177	1850.42082	1679.91341	1512.11677	1253.34608
2400	2700	1199.94314	1532.42462	1504.5681	1434.0475	1265.74077	1346.17592	1361.9752	1408.7218	1336.53994	1424.19602	1482.21126	1767.53166	1561.39125	1778.90255	1514.80885	1623.44819	1501.42487	1536.43659	1501.70117	1281.47876	1603.88382	1641.42576	1596.43944	1573.56066	1799.3167	1648.36745	1583.25999	1411.75613
2700	3000	1439.50084	1260.37653	1448.03878	1441.28426	1344.34951	1396.41263	1245.40718	1365.96184	1184.26826	1354.47852	1295.2773	1770.23569	1602.3695	1519.43305	1555.94867	1480.00067	1472.25859	1453.43504	1407.90267	1279.86716	1591.76525	1689.83726	1472.02133	1330.4439	1571.40144	1359.70167	1596.80286	1442.39761
3000	3300	1614.29875	1363.94374	1232.52043	1459.40722	1350.62754	1417.19702	1239.1913	1167.18022	1206.35958	1209.05752	1229.52047	1554.20626	1297.87568	1297.66789	1338.74465	1263.07341	1288.85393	1269.0619	1266.90467	1251.30036	1524.2917	1748.20084	1770.76289	1849.22339	1859.27009	1732.41781	1352.08094	1324.13346
3300	3600	1243.89003	1473.69914	1276.68974	1294.48836	1259.19384	1328.03262	1162.38595	1247.15933	1192.37301	1328.57933	1436.694	1582.89123	1356.38131	1545.99436	1361.73539	1423.22816	1329.06265	1401.24609	1323.62282	1074.29403	1217.17373	1567.94798	1636.45819	1754.50352	1570.12224	1518.1895	1161.15551	1072.30027
3600	3900	1116.26387	1529.59101	1532.50063	1301.56305	1138.98251	1081.69698	1337.13687	1139.95102	1277.79719	1296.94803	1169.26371	1611.34334	1493.36033	1319.67638	1458.82915	1306.86467	1411.98521	1240.04966	1370.64418	1179.20694	1566.20044	1435.45804	1465.17449	1460.75632	1710.49931	1607.5923	1301.3575	1317.13798
3900	4200	1572.70826	1194.74083	1372.1232	1297.00734	1188.57134	1306.0893	1313.8211	1083.71997	1152.40852	1251.786	1244.50383	1409.19285	1383.36293	1330.11145	1336.04743	1320.47034	1322.91751	1261.0633	1291.68475	1119.35059	1322.44102	1521.04889	1488.91035	1432.17083	1409.56825	1241.71413	1165.01595	1222.02194
4200	4500	1173.35766	1064.2599	1236.47115	1224.86077	1001.98323	1117.62436	1213.31694	1200.4881	1112.67472	1243.1737	1330.26407	1566.42142	1319.21738	1438.26106	1305.84953	1359.43025	1277.44865	1301.86113	1284.62916	1184.57734	1184.60352	1351.11137	1215.68308	1373.82677	1319.2166	1221.51493	1064.09019	1126.23255
4500	4800	1273.05875	1246.60921	1318.8245	1230.66162	1254.19419	1249.8116	1025.27186	1145.44509	1061.7941	1203.09273	1220.82006	1618.14822	1375.90281	1530.65137	1337.98638	1415.11026	1277.53998	1319.43128	1245.26354	1050.74885	1124.30546	1570.80384	1408.87159	1436.88535	1345.59387	1230.21677	1231.73954	969.54682
4800	5100	984.39437	1196.64015	1254.84679	1156.76466	1136.51704	1048.88803	1194.92453	1189.09015	1234.8923	1103.79321	1097.3775	1417.88225	1309.25807	1223.12715	1256.79752	1156.35656	1209.00158	1180.67599	1196.30462	1274.77595	1177.98988	1246.58551	1492.10133	1520.53867	1432.00959	1376.05961	1529.91978	916.1391
5100	5400	1011.33426	1196.49055	1382.76968	1353.10051	1117.19412	1119.93847	1296.92763	1050.49748	1140.25866	1035.09161	1061.79699	1590.29201	1469.20026	1329.08438	1473.77027	1251.29888	1396.60439	1116.96035	1327.45236	1061.15535	1294.23625	1582.90219	1422.00619	1384.07893	1556.23251	1450.63013	1106.65438	1057.38849
5400	5700	1140.63806	1426.23965	1183.22235	1093.1063	1148.17142	1235.33824	1190.09499	1023.85101	1061.08288	1045.82201	1224.89204	1285.63934	1244.81494	1171.29617	1153.29676	1133.84594	1170.58057	1109.90904	1192.77192	966.07232	1091.34098	1092.64433	1134.39806	1369.01009	1290.31718	1278.85628	1098.89659	1134.56682
5700	6000	831.69352	1310.66252	1428.34258	1149.51309	1056.28555	864.4728	1243.74628	900.5115	1118.31213	977.19892	985.75025	1485.97682	1264.4957	1296.65128	1305.69141	1218.7022	1252.3167	1017.84931	1205.96068	883.39434	1034.614	1153.73437	1198.71619	1558.05145	1347.60116	1226.23191	1192.09255	751.63098
6000	6300	1142.95834	1349.72936	1180.25075	1085.91897	914.31892	1086.67048	1114.05792	962.22527	986.40835	1093.57196	1122.4628	1498.94737	1313.63972	1280.0362	1244.44421	1196.37968	1192.31978	1144.75304	1204.98647	898.99992	947.10174	1290.62028	1352.14269	1338.96011	1269.96823	1173.52832	1061.00776	950.46852
6300	6600	906.63831	1431.23744	1069.36727	1005.60837	989.26445	927.47707	1055.96616	1089.07828	899.7575	1027.87785	989.80675	1384.98148	1189.91856	1199.53699	1031.64566	1125.4306	1016.1165	1089.36604	1040.11938	962.0057	1098.64024	1264.34997	1048.76102	1351.77936	1364.52858	1331.91893	1044.18133	1018.37383
6600	6900	1263.35087	928.49276	1067.12823	975.5656	881.69904	1165.00493	947.89819	1115.9359	813.52156	976.67238	983.07369	1112.601	1168.79988	1044.09574	1093.13218	1025.11769	1039.38822	1045.18904	1038.96364	987.26627	1033.02036	1100.34399	1201.93993	1295.2329	1085.71562	1090.95764	1268.57196	952.69557
6900	7200	807.01901	1109.98431	992.63317	997.62328	950.20165	1017.6125	993.70774	1176.15707	975.39273	1054.95576	1172.10363	1320.90266	1151.5014	1327.09834	1162.13837	1238.87338	1146.12416	1163.07958	1144.06405	867.70682	1049.24656	931.80528	936.89479	962.68474	1107.2339	1226.61511	1346.11478	883.28866
