frame_start	frame_end	parasubiculum	HATA	fimbria	hippocampal_fissure	HP_tail	presubiculum-head	presubiculum-body	subiculum-head	subiculum-body	CA1-head	CA1-body	CA3-head	CA3-body	CA4-head	CA4-body	GC-ML-DG-head	GC-ML-DG-body	molecular_layer_HP-head	molecular_layer_HP-body	Lateral-nucleus	Basal-nucleus	Central-nucleus	Medial-nucleus	Cortical-nucleus	Accessory-Basal-nucleus	Corticoamygdaloid-transitio	Anterior-amygdaloid-area-AAA	Paralaminar-nucleus
0	30	641.93273	12.27653	26.86276	456.20306	55.8342	344.93915	93.7377	112.6363	41.02014	103.66402	94.03552	9.63671	32.28446	41.40231	39.3705	68.4798	40.75118	134.73192	57.10002	40.8117	129.20699	83.30819	11.37405	51.99058	77.10608	65.38935	306.29528	106.07226
30	60	1438.15451	373.06828	718.3397	811.54844	602.0911	861.49791	562.65923	366.49306	302.31957	636.68444	573.54063	365.19743	651.61723	297.96085	595.46044	355.96106	568.96298	542.9283	552.37791	542.22322	1119.96524	303.5671	261.46269	561.39003	635.08273	835.01977	1670.69881	945.58831
60	90	1815.4528	1228.50754	1058.03627	1975.06475	1096.14279	1669.55655	1635.78711	690.66848	627.05056	1182.98543	749.55405	1646.18036	1100.69045	1486.45271	1023.30558	1374.40698	1036.65517	1214.12862	950.91278	1203.43496	2038.88637	883.22676	910.5308	786.37732	1285.06716	1475.3247	2442.21872	1688.91845
90	120	2079.88764	1014.53765	2331.10857	2212.83358	1339.65164	2123.89391	2656.50009	1415.43746	2223.95358	1565.24927	2093.48455	2559.07606	2317.66375	2972.77171	2732.71108	2480.55553	2631.54853	2131.91992	2579.0499	1193.9901	1888.10163	1842.57352	1791.16659	1730.02986	1487.11011	1420.25443	2669.18754	1421.07708
120	150	2420.22864	1397.36328	2254.07253	2424.65921	1888.45628	2045.98783	2277.94572	1695.136	1959.00604	1845.46996	2467.37191	2759.10845	2273.33274	2013.96936	2438.70398	1888.64475	2375.72013	1936.84568	2387.29463	1546.60415	3209.45376	1063.8838	694.50879	614.64193	1843.06214	1990.69467	2697.85547	2991.83304
150	180	2329.17689	1907.64747	1816.4875	2676.74796	1366.00831	2450.89251	2187.65276	1891.10057	1165.21018	1960.87075	1186.43114	2550.47913	1648.29013	2413.68781	1443.20253	2288.36781	1496.48031	2167.76154	1481.6073	1667.04435	2040.14285	2325.68389	2552.77384	2652.51692	2354.46661	1756.30113	1853.24922	2025.26215
180	240	1896.51572	1438.53888	1589.4316	2175.54791	1781.41662	2094.91481	1787.52488	1750.94388	1583.1552	1874.92935	1838.75763	2396.27976	1911.42817	2847.33603	1865.32118	2556.93521	1799.46941	2245.65486	1865.18575	1558.29508	1372.52508	1907.71919	1981.09428	1683.45089	1661.16791	1535.66868	2171.32798	1359.14824
240	300	1674.5091	1141.17509	2110.74517	1735.73265	2228.13332	1632.20728	1632.37391	1283.9257	1759.90361	1762.69901	1958.66808	2242.08778	2289.87851	2279.01667	2165.54646	2085.15377	2057.48931	1928.75065	2047.33723	1326.30844	1808.99765	1397.44144	1211.57426	1585.73315	1730.87028	1751.85312	2113.58178	1577.96246
300	360	1628.52367	1201.37091	2073.43974	2433.09321	1629.10223	2439.67152	2236.25507	2023.76568	1707.67296	1802.70476	1938.12278	3700.22551	2163.04434	3367.77598	2085.48735	2903.78704	2055.85541	2460.01758	2060.12883	1847.88567	1558.3902	2190.71364	1248.0789	1490.26153	1603.03958	1388.95135	2004.83284	1337.80196
360	480	1758.02159	1506.9191	2074.70676	1984.30909	1765.15979	1917.70461	1807.33745	1713.78636	1489.9857	1777.39228	1647.32975	2271.72784	2220.65175	1933.99642	1993.13294	1945.83953	1958.87724	1930.47927	1905.74619	1526.66733	1491.60751	1824.16695	1895.31087	1605.89924	1659.59062	1332.70375	1665.35457	1235.55642
480	600	1101.01178	1254.93014	1981.06483	1764.41829	1809.63332	1307.51759	1994.69261	1420.64223	1442.23232	1666.85166	1595.56041	2343.7752	2115.25848	1995.48104	1779.28071	1896.28801	1816.18256	1773.83413	1798.80309	1471.68776	1708.48444	1883.50681	1661.06201	1487.5698	1504.74254	1183.03701	1464.48941	1520.95828
600	900	1439.4446	1340.18454	1967.6873	1693.24538	1839.74904	1701.25791	1701.25305	1707.40549	1617.94338	1617.95933	1668.69954	2227.20635	2031.98837	2210.86554	1924.74576	1991.96211	1886.95327	1894.91554	1876.5479	1694.38186	1744.23389	1769.15931	1613.66878	1627.00078	1620.40694	1472.41813	1884.06331	1554.49604
900	1200	1217.2583	1379.19901	1884.5453	1507.60209	1653.63562	1514.78774	1675.33973	1485.70607	1483.39994	1565.79794	1612.81545	2335.22001	1912.92586	1809.30795	1860.99786	1686.91946	1821.06999	1729.98164	1759.6045	1634.46256	1787.39118	2009.08781	1683.70443	1483.03759	1888.99825	1381.0316	1510.3663	1624.89595
1200	1500	1219.11031	1235.7516	1771.15424	1501.27308	1594.45842	1391.72914	1467.99716	1473.99844	1347.87374	1448.32608	1587.71801	1970.1277	1911.91361	1790.53379	1791.41982	1664.38333	1728.09316	1625.33754	1689.01408	1434.44063	1458.51767	1774.372	1529.80448	1438.81838	1574.25407	1285.88745	1382.11518	1296.23891
1500	1800	1177.05372	1306.79871	1558.18997	1325.17745	1372.5401	1268.87692	1290.34615	1321.80421	1291.89688	1321.98402	1434.82238	1695.28485	1629.83336	1651.18256	1514.54976	1547.68911	1483.0603	1416.77006	1485.1575	1342.31742	1453.3981	1648.93496	1507.9552	1539.43679	1613.49916	1369.35377	1231.69774	1178.65511
1800	2100	1082.00796	1252.34669	1420.63164	1405.823	1198.7047	1393.89738	1304.17702	1494.15914	1327.79547	1385.19135	1377.92346	1601.1841	1393.80125	1673.74621	1465.11763	1593.05233	1452.57281	1498.28637	1403.65996	1603.38521	1463.89167	1623.98848	1489.58207	1300.93868	1436.53369	1236.01683	1378.81777	1295.66193
2100	2400	1032.95706	1216.75962	1349.63688	1320.61345	1191.11902	1256.6841	1290.78012	1249.73148	1392.94729	1207.34657	1416.6684	1425.27905	1534.70461	1502.94951	1513.10959	1439.63708	1491.11406	1333.54697	1482.12395	1112.53218	1203.145	1206.07541	1296.49695	1180.29718	1206.56602	1121.38544	1011.31969	1149.37656
2400	2700	865.25713	1001.81995	1246.24121	1089.5659	1052.70297	927.41884	1204.80942	1088.04205	1188.27926	987.31873	1183.60367	1434.04403	1248.77174	1175.02063	1306.36738	1134.24702	1297.68872	1087.70716	1261.401	952.90528	1066.10785	1472.21323	1297.29093	1234.49165	1200.7997	1093.72927	886.1622	1080.60885
2700	3000	965.35734	961.29806	1182.03467	1114.70685	916.29179	1147.79772	1073.64535	1127.6527	988.97437	1050.10795	1005.14039	1482.14209	1312.66216	1197.92901	1213.24194	1157.79519	1194.78706	1180.2127	1132.72544	872.91903	973.92164	1360.46295	1316.40442	1264.08423	1075.32884	1062.19603	1070.61887	1053.29075
3000	3300	914.61556	1190.06251	1052.47496	939.47099	907.00802	1011.26992	995.43849	1032.88578	929.44218	1007.44166	1077.31071	1293.31877	1068.66359	1101.75792	1111.38456	1063.07944	1088.52789	1097.46369	1066.90192	1018.67963	1074.96303	1305.58453	1223.8431	1144.85146	1204.53534	1060.99628	1034.75751	1063.71918
3300	3600	906.96615	1016.15573	1225.08272	1201.52998	889.74196	1038.39102	1104.12772	944.50255	824.63567	1027.96291	792.20803	1400.92001	1098.49195	1157.50905	994.0864	1107.63074	992.30898	1071.53652	952.30333	1030.85351	1092.83128	1214.46749	1116.75972	1366.26919	1074.98935	1022.65319	1001.23676	1054.63074
3600	3900	679.37097	1088.77353	1023.53231	867.27037	895.81288	836.46615	795.12377	897.0088	834.5243	910.91219	916.21102	1143.19404	1152.60549	1185.58341	943.89628	1082.46591	931.6193	971.71188	936.75141	919.83242	941.86117	1072.03599	1032.44401	1073.61251	1020.89297	1054.75806	1037.07053	839.79125
3900	4200	944.63125	996.14952	995.11549	995.76243	870.91023	1016.72669	812.03562	905.12396	777.18715	1008.93833	879.20016	1134.55822	1084.4063	1009.33822	960.9845	1020.05439	948.0488	1010.77572	919.76091	768.44231	887.1712	1074.5496	828.40393	803.05367	995.62283	828.22055	1089.72497	783.52834
4200	4500	922.98374	741.81033	1013.80428	1024.55123	824.28419	1020.09569	1108.63942	854.35572	903.9678	868.93136	954.03598	1010.50042	1081.89221	1002.91291	1030.32124	980.51101	1039.93655	930.91628	1037.43558	831.52946	937.08911	995.87081	947.42295	1101.7327	943.52402	824.56013	997.98965	861.21034
4500	4800	930.29569	809.2922	975.23519	1006.34599	733.63577	880.37649	870.50616	702.6073	750.95341	894.93706	607.11629	903.4246	891.16046	812.86805	832.5459	830.46813	835.05276	844.56896	782.96564	897.57088	910.2269	995.96875	985.1483	976.29843	1008.96939	825.07334	665.46466	943.71971
4800	5100	815.69983	889.37609	928.05737	826.11783	701.21647	771.36995	793.09194	802.25467	767.01322	942.15486	783.44404	1041.14697	905.04189	954.38354	921.37443	928.39102	905.4088	921.8314	844.16834	899.44116	873.17907	1017.96173	914.82957	993.76061	974.7868	875.05771	706.17993	845.98054
5100	5400	847.2295	990.71527	846.55053	940.25836	718.18646	971.83631	782.59897	922.11858	685.26445	1042.38872	776.14368	1072.09975	885.16482	1003.53858	809.99035	1004.77405	807.8795	1068.40364	799.1003	811.01265	778.87461	1197.79148	1141.30021	1085.41217	1065.43969	834.9217	432.42023	878.64782
5400	5700	767.9705	1140.06424	1031.28058	822.64986	748.52009	785.55892	782.90913	825.10847	816.30686	815.24357	751.49408	1006.10198	1151.45084	842.29094	1015.82788	852.05944	980.62411	842.44669	925.20379	840.82112	858.80836	1047.49987	1393.82088	1210.39156	1022.36059	1045.97016	1059.89231	852.70813
5700	6000	769.41524	894.2826	771.52514	723.19485	709.86692	764.71843	771.18291	771.58045	719.142	780.94877	771.02898	864.79531	919.87377	574.49776	781.55223	640.87151	778.87205	744.58254	798.33221	704.1426	795.97235	1035.0593	1134.93331	944.0412	789.53373	583.50356	714.78752	933.18804
6000	6300	970.71292	914.9136	933.71186	797.3565	709.35555	869.477	704.82147	749.23556	739.45184	787.22567	825.9148	980.39765	1104.03066	682.17021	971.19734	711.01376	946.87194	816.79221	897.4425	709.86484	709.88352	966.2804	899.45736	865.28431	774.35295	815.65422	669.51355	816.45946
6300	6600	697.51301	791.7465	959.79698	608.06838	644.43226	578.68442	719.08566	686.63772	825.89673	738.90331	905.14132	741.54632	1013.87556	719.40532	940.60675	695.61147	912.35071	721.03671	904.25538	821.75725	695.56579	915.20551	822.99632	983.84903	927.45997	866.16236	749.73515	718.68367
6600	6900	695.04452	768.03458	962.08796	695.33467	778.29656	587.25419	758.66907	696.36509	858.33699	652.90732	819.13753	1047.95761	1011.38527	790.93312	1005.48802	744.91057	966.46052	727.57504	917.40607	797.97346	620.39157	1157.75113	1001.42456	1034.31171	793.8829	662.87406	567.34197	556.65126
6900	7200	630.41738	737.36329	651.66139	759.47193	713.32395	763.00386	667.15002	739.13268	537.49444	757.14177	641.14481	884.5567	785.45255	877.21372	651.92681	837.90331	640.51663	806.13187	659.91695	888.92507	832.79328	909.85364	752.06895	804.48334	778.58861	790.70489	878.74055	821.30022
