frame_start	frame_end	parasubiculum	HATA	fimbria	hippocampal_fissure	HP_tail	presubiculum-head	presubiculum-body	subiculum-head	subiculum-body	CA1-head	CA1-body	CA3-head	CA3-body	CA4-head	CA4-body	GC-ML-DG-head	GC-ML-DG-body	molecular_layer_HP-head	molecular_layer_HP-body	Lateral-nucleus	Basal-nucleus	Central-nucleus	Medial-nucleus	Cortical-nucleus	Accessory-Basal-nucleus	Corticoamygdaloid-transitio	Anterior-amygdaloid-area-AAA	Paralaminar-nucleus
0	30	50.77562	2.17659	146.22166	42.75147	20.37654	68.56515	23.79038	10.65728	10.52629	47.73669	14.19761	54.35812	68.4138	29.47208	62.48589	38.74289	60.8438	48.63306	35.52112	114.41475	114.56112	62.43454	3.54198	1.83048	22.91767	9.59057	110.55619	22.28519
30	60	558.25503	1191.79182	961.00602	739.77235	626.83382	544.46131	771.96409	532.9118	440.91591	608.12158	607.41253	1543.31166	1065.74396	972.82017	921.13446	910.05688	865.25272	738.07531	841.20551	386.79255	826.31257	697.21841	196.06067	994.44891	1002.85304	1324.86314	2265.04793	653.90137
60	90	1126.87325	2585.9438	1403.96198	1293.92272	1505.12358	1292.16357	1004.17508	1257.61943	956.22038	1575.84561	1141.06893	2294.32	2220.19631	1907.94873	1632.62091	1911.12225	1512.68039	1624.18117	1430.16576	1088.71308	1574.06412	1276.50878	738.93918	1227.12913	1750.08674	2290.41592	3813.16474	1525.4185
90	120	2418.28001	2554.17447	2292.46674	2012.41306	2491.08356	1665.65335	2206.04345	1988.0825	1987.53074	2226.58717	2615.80501	2523.50681	3562.35741	2139.76628	3164.32278	2173.07493	2928.77727	2085.43828	2890.55812	1693.84231	2676.95479	1962.20769	1299.06057	2156.19788	2910.22407	3520.36031	4166.51251	2150.73331
120	150	1747.986	2662.34421	2719.58773	2746.98847	2765.25791	1793.97219	2654.76081	2048.85874	1927.9076	2683.31276	2584.97609	3773.35931	3752.32438	2164.68693	3234.37712	2281.37566	2979.80873	2412.54079	2971.60208	2460.23345	3115.7165	2081.08109	1460.30949	2572.68085	2856.20561	3226.34003	4611.65063	2990.08649
150	180	2265.0872	3481.5618	3489.18927	3049.46867	3003.59392	2754.59498	2969.03758	2547.87076	2471.72227	2627.05725	2943.98973	3824.03361	3471.53553	3503.60886	3284.73399	3272.75308	3219.34233	2919.29597	3186.23087	2407.82683	2888.93033	2629.43829	2140.82803	2626.39879	3284.81997	3227.68847	3180.98245	2672.55022
180	240	2152.27718	2279.44945	2869.33084	2600.91326	2487.77179	2112.61253	2336.43716	1982.35773	2338.32053	2914.69212	2671.89274	4230.53229	3119.27641	3368.67222	2961.24756	3309.51114	2851.17953	2982.23034	2820.85241	2155.91213	2518.04961	3075.27126	1583.17921	2119.41452	2477.94099	1672.52235	3220.51044	2194.10462
240	300	2328.7841	3379.94351	2570.18041	2297.19901	2676.05499	2870.16281	2168.31773	2324.94993	1962.5927	2425.83685	2217.93193	4517.70225	3324.23662	3126.36198	2922.08445	2985.19338	2757.32223	2818.92303	2565.55406	2274.92481	2810.87914	3245.1755	2045.54952	3022.68957	3648.20939	2807.76047	3075.19207	2121.10026
300	360	1943.53734	2338.02665	2231.35693	2362.06488	2232.617	2308.20813	2283.93717	2421.36093	1888.24485	2281.91308	2694.32893	3255.47281	3032.75354	2991.05802	2437.03488	2962.54148	2404.32298	2603.51649	2593.70192	2381.86086	2646.59913	3106.77207	2680.75045	2650.95737	2886.04425	2413.63765	3297.18688	2040.71695
360	480	2199.49468	2719.06224	2257.22797	2507.61499	2422.62579	2612.93378	1929.28525	2298.41382	2039.03056	2677.47006	2631.8215	3375.96927	3161.3987	2898.06023	2863.31859	2749.68492	2697.18877	2847.22434	2692.56973	2378.91494	2781.34285	2556.01069	1531.94049	2288.36561	2885.18134	2772.31964	2821.72211	2515.04204
480	600	1762.69351	2554.27158	2373.34602	2219.84763	2126.43464	2421.55675	1677.63355	2570.08758	1949.16633	2397.84637	2726.01709	3164.09332	3159.22479	2939.85932	2788.93781	2759.35824	2635.15427	2679.70759	2618.57654	2382.33215	2402.36416	2602.51999	2034.07559	2241.93213	2161.62197	2051.14841	2901.39012	2069.71017
600	900	1911.78021	2226.6207	2156.76356	1967.74203	1825.3223	1979.91318	1767.06146	1899.78438	1825.49121	2260.56332	2193.94324	2556.61029	2524.78941	2402.53762	2309.54551	2342.72338	2206.64266	2285.34821	2205.00091	2100.4696	2169.01775	2189.40125	1784.11095	2175.94999	2230.46941	2253.5813	2618.02751	1998.3421
900	1200	1394.50354	2164.14776	1868.76192	1708.68555	1485.78045	1531.21769	1676.96355	1689.75909	1658.1053	1697.70484	1825.78118	2139.81621	2135.98622	1808.41728	1991.80543	1762.75486	1901.55192	1710.24539	1887.23086	1581.80177	1966.44808	2191.36117	1623.36652	1866.35928	2306.31438	2024.13691	2276.49924	1492.42123
1200	1500	1311.21348	2200.76152	1789.37486	1422.88147	1374.37766	1382.10815	1384.97096	1408.74709	1420.69022	1448.12831	1674.32165	1781.21782	2118.83707	1303.96387	1922.54535	1331.04346	1823.71078	1413.20436	1764.92776	1628.6174	1629.02869	1885.83996	1941.57673	1833.31363	1950.48027	1727.79081	1808.61311	1429.48168
1500	1800	1186.76022	1590.58127	1346.20126	1322.97944	1150.87715	1401.40266	1249.32388	1262.0329	1107.24396	1301.78082	1277.44486	1991.56949	1657.2724	1510.32243	1433.73966	1464.16645	1371.3971	1418.6742	1358.15723	1385.89337	1434.31346	1769.21012	1642.74802	1529.71821	1609.65948	1432.491	1397.8033	1243.35513
1800	2100	993.41426	1358.81472	1345.81787	1337.78242	1237.19371	1207.5176	1299.2548	1327.27377	1126.71921	1215.51909	1665.58673	1709.0607	1600.60756	1492.16409	1499.76238	1471.568	1448.88192	1297.33152	1468.05708	1377.87142	1297.26912	1445.92041	1043.5699	1277.42262	1451.64411	1446.6162	1404.8065	954.10766
2100	2400	1329.78801	1479.19496	1177.21694	1206.51844	1075.52166	1236.64204	1102.81798	1114.40723	995.11485	1265.15704	1214.15513	1532.88946	1405.15854	1378.50504	1233.76514	1317.30355	1188.85463	1254.76658	1215.85834	1174.29082	1302.54722	1490.95217	1187.58754	1347.51644	1523.88436	1466.36421	1309.49593	1246.43031
2400	2700	1106.78544	1355.59145	1070.83004	1168.80041	954.48934	1111.70121	1093.27884	1145.70224	1120.2357	1171.9292	1175.34801	1465.05123	1215.24547	1217.13379	1115.74954	1236.85206	1098.1903	1182.50771	1130.34777	1159.32756	1073.25357	1432.56745	1219.09454	1359.58138	1175.06371	1085.16256	1133.0633	991.8238
2700	3000	1078.56775	1321.25792	1123.43444	1138.88553	1070.63185	1092.88244	1070.86799	1016.99622	1025.54021	1079.8041	1288.27203	1471.43165	1289.55669	1265.50561	1208.41277	1236.60097	1181.98781	1149.94261	1201.9935	1049.60197	1002.13884	1376.34893	1105.55544	1200.59453	1112.1602	1016.84219	1390.32959	825.9273
3000	3300	960.16815	1058.15147	1148.89712	1074.74591	896.33323	903.2734	1033.72123	982.14247	955.93936	1039.65595	1044.36163	1385.323	1156.62201	1128.09109	1118.31906	1115.18632	1111.89061	1024.86789	1113.29559	1115.41074	1082.84766	1313.2232	1241.28347	1230.65243	1141.41213	947.98125	1019.93158	984.96085
3300	3600	850.64448	1015.5227	1001.07266	907.75466	853.8677	891.1137	970.68173	1026.59422	952.97114	902.55269	1080.62687	1011.01348	1118.23398	959.27622	1041.92467	948.76338	1017.02471	951.36446	1036.8458	1008.5539	982.70731	903.22295	779.04291	1059.70022	1028.59553	1086.88831	1326.41679	823.35748
3600	3900	937.43888	946.93623	1014.57893	967.00619	884.29493	932.0737	940.84743	930.32956	845.51339	936.971	1041.73978	1086.26695	1190.95778	995.52403	1079.69641	976.21134	1044.6769	991.13417	1045.47531	980.80241	941.61884	1320.27847	878.44533	1172.21793	1168.45632	1066.10825	879.37175	864.97145
3900	4200	773.18567	1372.85764	1195.68931	1039.13084	838.83525	925.73587	1113.95729	993.74566	830.13344	1115.44434	1077.08646	1276.64977	1203.93343	1093.42731	1050.28636	1092.19074	1036.33822	1128.7309	1080.67439	877.79294	986.28076	1277.8332	1064.453	1180.87386	1318.83539	1159.64063	1294.89947	781.46191
4200	4500	1013.65081	886.40457	1012.72953	1079.69622	945.31356	1096.75321	1016.60546	1063.82056	844.88247	1044.47159	922.46568	1301.30421	1211.65295	1148.63254	1042.78207	1107.09914	994.87803	1087.56798	1016.47766	959.31072	989.54752	916.09823	778.57302	1033.94983	1018.35506	896.65247	905.10036	1138.13698
4500	4800	737.13427	1011.15159	971.10857	871.89561	806.51958	743.12385	812.93858	824.43183	889.37749	860.30936	1176.1426	1113.13036	1183.70954	859.80949	1088.898	836.3384	1049.5088	845.06162	1056.32166	925.12288	1142.7411	1092.44426	939.88395	903.37214	1046.48906	1084.28562	1122.29364	1093.21313
4800	5100	897.06936	864.30992	845.15557	924.27736	840.33664	870.85488	852.7305	948.13291	824.19575	898.8419	976.18743	1441.01178	982.46518	1038.46496	884.23581	1013.01429	875.87764	961.94736	901.93746	883.05228	885.52335	1211.31538	713.29119	896.69769	981.83397	976.85166	961.72676	717.97663
5100	5400	824.84919	1160.90266	904.33803	865.90782	726.13098	835.76746	804.87364	814.7148	791.19394	892.21237	990.85685	1243.36492	1131.47518	933.84291	1029.95163	903.90777	981.10536	903.82443	973.59247	816.87006	877.1285	1115.43843	832.68969	1066.89309	1091.93378	1045.28997	789.19404	816.0209
5400	5700	854.54214	1037.84605	1104.82588	825.65569	907.65474	820.47968	888.20161	682.94113	854.17406	766.74501	1163.05072	1084.72017	1065.46634	783.03507	1055.50324	796.93876	1044.48516	776.51417	1043.22406	812.87814	970.98984	1262.30535	947.19945	790.32954	900.88209	936.38257	871.74008	831.2793
5700	6000	815.34884	1151.11881	913.85912	975.46824	735.616	1027.41153	842.56352	896.71992	876.42589	974.09871	1210.50768	1264.81899	1047.47963	1064.18544	1106.87417	1059.22359	1082.08915	980.73813	1052.84495	979.4427	838.04451	944.24893	1123.67608	1219.72865	1012.3642	1157.27702	856.24497	835.9536
6000	6300	724.59679	1175.30058	1111.03809	968.42652	685.13241	869.13404	943.48749	871.04766	830.46458	833.54448	1107.55905	1345.66445	1270.10282	1053.1841	1117.90402	975.28529	1102.70267	924.59075	1117.55963	907.37032	921.45042	998.69113	930.87927	930.43528	965.64994	1006.78821	1255.36395	660.13432
6300	6600	779.22375	1158.13033	911.86343	874.95073	735.3317	894.7532	769.6747	935.1484	735.26238	849.44972	882.58647	1052.01478	1057.35888	974.34622	966.36095	953.29659	918.11178	879.53798	878.5342	922.32175	883.22373	1184.00706	945.25054	998.27221	990.82818	968.13999	1053.38805	585.54792
6600	6900	766.33401	970.68819	1036.82916	913.8799	627.16574	829.50864	812.03141	867.8651	794.23633	897.56003	1025.21167	1185.2732	1089.53768	953.73581	975.46635	935.26271	943.52961	940.57543	968.17872	769.12874	691.14358	904.53711	1048.26881	767.15552	772.72091	684.8962	815.03897	610.99858
6900	7200	846.54732	951.17193	829.59431	793.6042	757.00309	777.0892	847.84657	646.60029	676.06076	751.67181	789.70211	998.52329	831.79123	686.85805	786.6717	753.0945	798.89972	736.02004	797.13488	742.64362	684.63064	1033.87706	754.7853	817.54069	770.05934	742.59149	863.85166	652.30065
