time	whole_blood_radioactivity	plasma_radioactivity	metabolite_parent_fraction	AIF
0	0	0	0.25	0
1.203200533422237	0.23236456029441038	0.33408667901186606	0.28952329579904607	0.04840485923588927
2.406401066844474	0.46472912058882077	0.6681733580237321	0.32904659159809213	0.09680971847177854
3.6096016002667115	0.6970936808832312	1.002260037035598	0.3685698873971382	0.14521457770766782
4.812802133688948	0.9294582411776415	1.3363467160474642	0.40809318319618426	0.19361943694355707
6.016002667111185	1.1618228014720517	1.6704333950593302	0.44761647899523027	0.24202429617944632
7.219203200533423	1.3941873617664624	2.004520074071196	0.4871397747942764	0.29042915541533565
8.42240373395566	1.6265519220608728	2.338606753083063	0.5266630705933224	0.33883401465122487
9.625604267377897	1.858916482355283	2.6726934320949285	0.5661863663923685	0.38723887388711414
10.828804800800134	2.091281042649693	3.006780111106794	0.6057096621914145	0.43564373312300336
12.03200533422237	2.3236456029441035	3.3408667901186604	0.6452329579904605	0.48404859235889264
13.235205867644607	2.5560101632385144	3.674953469130527	0.6847562537895067	0.532453451594782
14.438406401066846	2.788374723532925	4.009040148142392	0.7242795495885528	0.5808583108306713
15.641606934489083	3.0207392838273353	4.34312682715426	0.7638028453875988	0.6292631700665605
16.84480746791132	3.2531038441217457	4.677213506166126	0.8033261411866449	0.6776680293024497
18.048008001333557	3.4854684044161557	5.011300185177991	0.8428494369856909	0.7260728885383391
19.251208534755794	3.717832964710566	5.345386864189857	0.8823727327847369	0.7744777477742283
20.45440906817803	3.950197525004977	5.679473543201724	0.9218960285837831	0.8228826070101175
21.657609601600267	4.182562085299386	6.013560222213588	0.9614193243828291	0.8712874662460067
22.860810135022504	4.396266270351012	6.32081758273524	0.9989451003276922	0.9160223369818915
24.06401066844474	4.259413208654132	6.124054423856848	0.9989451003276922	0.8918121277061755
25.267211201866978	4.12256014695725	5.9272912649784555	0.9989451003276922	0.8676019184304594
26.470411735289215	3.9857070852603695	5.7305281061000635	0.9989451003276922	0.8433917091547435
27.67361226871145	3.8488540235634887	5.53376494722167	0.9989451003276922	0.8191814998790274
28.876812802133692	3.7120009618666074	5.337001788343277	0.9989451003276922	0.7949712906033114
30.080013335555932	3.5751479001697266	5.140238629464884	0.9989451003276922	0.7707610813275954
31.283213868978166	3.438294838472846	4.943475470586492	0.9989451003276922	0.7465508720518794
32.4864144024004	3.301441776775965	4.746712311708099	0.9989451003276922	0.7223406627761635
33.68961493582264	3.1645887150790846	4.549949152829707	0.9989451003276922	0.6981304535004474
34.89281546924487	92.39553277478463	132.84347949252384	0.9989451003276922	129.20178781684865
36.09601600266711	247.46217319807124	355.79356645459836	0.9989451003276922	352.3896819671339
37.29921653608935	402.52881362135696	578.7436534166717	0.9989451003276922	575.577576117418
38.50241706951159	557.5954540446435	801.693740378746	0.9989451003276922	798.7654702677033
39.70561760293383	712.66209446793	1024.6438273408205	0.9989451003276922	1021.9533644179886
40.90881813635606	867.7287348912158	1247.5939143028938	0.9989451003276922	1245.1412585682726
42.1120186697783	1022.7953753145025	1470.5440012649685	0.9989451003276922	1468.329152718558
43.315219203200535	1177.8620157377882	1693.4940882270416	0.9989451003276922	1691.517046868842
44.518419736622775	1692.6453259143623	2428.1628310086503	0.9989451003276922	2399.155536744281
45.72162027004501	2450.161017866535	3501.663376309464	0.9989451003276922	3433.6953265612115
46.92482080346725	3207.6767098187115	4567.140757361951	0.9989451003276922	4468.235116378148
48.12802133688948	3965.1924017708843	5624.684584987527	0.9989451003276922	5502.774906195079
49.33122187031172	4722.70809372306	6674.383140471651	0.9989451003276922	6537.314696012015
50.534422403733956	5480.223785675234	7716.323400130214	0.9989451003276922	7571.854485828945
51.737622937156196	6237.73947762741	8750.591059333277	0.9989451003276922	8606.394275645884
52.94082347057843	6995.255169579583	9777.270555999994	0.9989451003276922	9640.934065462814
54.14402400400067	7752.77086153176	10796.445093578352	0.9989451003276922	10675.47385527975
55.3472245374229	8510.286553483931	11808.19666352272	0.9989451003276922	11710.013645096678
56.550425070845144	9267.802245436109	12812.606067282168	0.9989451003276922	12744.553434913616
57.753625604267384	10025.317937388283	13809.75293781168	0.9989451003276922	13779.093224730552
58.95682613768962	10513.822414304703	14469.4847354095	0.9989443308267527	14456.885896194055
60.160026671111865	10843.664666732608	14933.637861270963	0.9989431074758471	14924.269899861692
61.3632272045341	11173.506919160513	15398.426708889048	0.9989418841249416	15391.653903529326
62.56642773795633	11503.349171588417	15863.852585221797	0.998940660774036	15859.037907196964
63.769628271378565	11833.191424016322	16329.91680081227	0.9989394374231304	16326.421910864596
64.9728288048008	12163.033676444227	16796.620669800875	0.9989382140722248	16793.805914532233
66.17602933822305	12492.875928872134	17263.965509937683	0.9989369907213193	17261.18991819987
67.37922987164528	12822.71818130004	17731.952642594857	0.9989357673704136	17728.573921867504
68.58243040506751	13152.560433727944	18200.583392779085	0.998934544019508	18195.957925535142
69.78563093848975	13482.402686155847	18669.859089144116	0.9989333206686024	18663.341929202772
70.988831471912	13812.244938583755	19139.7810640033	0.9989320973176968	19130.725932870413
72.19203200533423	14142.087191011662	19610.350653342164	0.9989308739667913	19598.109936538047
73.39523253875646	14471.929443439565	20081.569196831126	0.9989296506158857	20065.493940205684
74.5984330721787	14801.771695867468	20553.43803783818	0.9989284272649801	20532.877943873318
75.80163360560094	15098.484848341359	20916.18625383256	0.9989272413464052	20884.793577474247
77.00483413902317	15378.602450432789	21222.076080815717	0.9989260741790227	21178.866977036774
78.20803467244541	15658.72005252422	21525.61558556095	0.9989249070116402	21472.940376599294
79.41123520586765	15938.837654615654	21826.831752655402	0.9989237398442576	21767.01377616182
80.61443573928989	16218.955256707084	22125.75115517283	0.9989225726768751	22061.087175724344
81.81763627271212	16499.072858798514	22422.399962488253	0.9989214055094926	22355.160575286867
83.02083680613435	16779.190460889942	22716.803947915178	0.9989202383421101	22649.233974849387
84.2240373395566	17059.308062981378	23008.98849617014	0.9989190711747276	22943.307374411917
85.42723787297884	17339.425665072806	23298.97861066902	0.998917904007345	23237.380773974437
86.63043840640107	17619.543267164237	23586.7989206596	0.9989167368399625	23531.45417353696
87.8336389398233	17899.66086925567	23872.473688194626	0.99891556967258	23825.527573099484
89.03683947324555	18179.7784713471	24156.026814949462	0.9989144025051976	24119.60097266201
90.24004000666778	18447.007165031828	24443.983066034336	0.9989128975949473	24418.360296681232
91.44324054009002	18662.519113734652	24757.61759920033	0.9989100374914406	24735.92189258296
92.64644107351225	18878.03106243748	25071.96472167981	0.9989071773879338	25053.483488484682
93.8496416069345	19093.543011140307	25387.026864778894	0.998904317284427	25371.045084386416
95.05284214035673	19309.054959843135	25702.806470876858	0.9989014571809202	25688.606680288143
96.25604267377896	19524.56690854596	26019.305993489317	0.9988985970774134	26006.16827618987
97.45924320720121	19740.07885724879	26336.527897331744	0.9988957369739065	26323.7298720916
98.66244374062344	19955.590805951615	26654.474658383413	0.9988928768703997	26641.291467993327
99.86564427404568	20171.102754654446	26973.148763951867	0.9988900167668929	26958.853063895054
101.06884480746791	20386.61470335727	27292.552712737746	0.9988871566633861	27276.41465979678
102.27204534089016	20602.126652060102	27612.68901490012	0.9988842965598793	27593.976255698515
103.47524587431239	20817.638600762926	27933.56019212221	0.9988814364563725	27911.53785160024
104.67844640773463	21033.15054946575	28255.16877767766	0.9988785763528657	28229.099447501965
105.88164694115686	21248.662498168578	28577.517316497135	0.9988757162493589	28546.661043403696
107.0848474745791	21509.288595496186	28988.336933897623	0.998871425837866	28964.271751721695
108.28804800800134	21786.145995533487	29432.680769459832	0.9988666208259076	29417.878427579086
109.49124854142357	22063.003395570788	29879.185462351586	0.9988618158139491	29871.485103436476
110.6944490748458	22339.86079560809	30327.866813463475	0.9988570108019906	30325.091779293867
111.89764960826805	22616.718195645393	30778.740778117513	0.9988522057900322	30778.69845515126
113.10085014169029	22893.575595682694	31231.823467958413	0.9988474007780737	31232.305131008652
114.30405067511252	23170.432995719995	31687.131152872793	0.9988425957661152	31685.911806866043
115.50725120853477	23447.2903957573	32144.680262936676	0.9988377907541568	32139.518482723437
116.710451741957	23724.1477957946	32604.4873903918	0.9988329857421983	32593.125158580824
117.91365227537923	24001.0051958319	33066.56929165139	0.9988281807302398	33046.731834438215
119.11685280880147	24277.862595869203	33530.942889335565	0.9988233757182813	33500.33851029561
120.32005334222373	24491.149409130638	33884.55978409397	0.9988144258016513	33844.338896116744
121.52325387564596	24529.021134507417	33927.021821445036	0.9987940385386928	33885.89442536912
122.7264544090682	24566.892859884196	33969.45900434599	0.9987736512757344	33927.449954621494
123.92965494249043	24604.764585260975	34011.87135461266	0.998753264012776	33969.00548387387
125.13285547591266	24642.63631063775	34054.258894035345	0.9987328767498176	34010.561013126244
126.3360560093349	24680.50803601453	34096.62164437886	0.9987124894868591	34052.11654237862
127.53925654275713	24718.37976139131	34138.95962738257	0.9986921022239007	34093.672071630994
128.74245707617936	24756.251486768087	34181.27286476043	0.9986717149609423	34135.227600883365
129.9456576096016	24794.12321214486	34223.56137820102	0.9986513276979838	34176.78313013574
131.14885814302383	24831.99493752164	34265.82518936758	0.9986309404350254	34218.338659388115
132.3520586764461	24869.86666289842	34308.06431989805	0.998610553172067	34259.894188640494
133.55525920986832	24907.738388275196	34350.278791405086	0.9985901659091087	34301.449717892865
134.75845974329056	24945.610113651972	34392.46862547616	0.9985697786461502	34343.005247145244
135.9616602767128	24983.48183902875	34434.633843673524	0.9985493913831918	34384.560776397615
137.16486081013502	24948.10134016357	34373.49875921036	0.9984898647165882	34322.22856477527
138.36806134355726	24744.409398426633	34075.25948681042	0.9983404075452276	34021.19376433388
139.5712618769795	24540.7174566897	33777.327848477275	0.998190950373867	33720.158963892485
140.77446241040175	24337.025514952762	33479.703368469054	0.9980414932025063	33419.12416345109
141.977662943824	24133.33357321583	33182.38557202438	0.9978920360311457	33118.089363009705
143.18086347724622	23929.641631478895	32885.37398535976	0.9977425788597851	32817.05456256831
144.38406401066845	23725.949689741963	32588.66813566713	0.9975931216884245	32516.019762126918
145.5872645440907	23522.257748005028	32292.267551111294	0.9974436645170639	32214.984961685524
146.79046507751292	23318.565806268092	31996.17176082749	0.9972942073457033	31913.95016124413
147.99366561093515	23114.87386453116	31700.38029491881	0.9971447501743427	31612.915360802737
149.1968661443574	22911.18192279423	31404.892684453796	0.9969952930029821	31311.880560361347
150.40006667777965	22654.86413639359	31047.42803774641	0.9968585653444085	30948.597097486752
151.60326721120188	22292.899966830584	30564.75505905988	0.9967473921827551	30460.349444777534
152.80646774462411	21930.935797267586	30081.659060088517	0.9966362190211016	29972.10179206832
154.00966827804635	21568.971627704585	29598.139484478557	0.9965250458594481	29483.8541393591
155.21286881146858	21207.007458141583	29114.195774900232	0.9964138726977947	28995.60648664988
156.41606934489081	20845.04328857858	28629.827373045562	0.9963026995361413	28507.358833940663
157.61926987831305	20483.07911901558	28145.033719626244	0.9961915263744878	28019.111181231445
158.8224704117353	20121.114949452567	27659.81425437148	0.9960803532128344	27530.863528522215
160.02567094515754	19759.150779889565	27174.168416025852	0.9959691800511808	27042.615875812997
161.22887147857978	19397.186610326564	26688.095642347103	0.9958580068895274	26554.36822310378
162.432072012002	19035.222440763562	26201.59537010401	0.995746833727874	26066.12057039456
163.63527254542424	18673.25827120056	25714.6670350742	0.9956356605662205	25577.87291768534
164.83847307884648	18311.294101637563	25227.31007204196	0.9955244874045671	25089.625264976123
166.0416736122687	17949.329932074557	24739.52391479605	0.9954133142429137	24601.377612266904
167.24487414569094	17587.365762511556	24251.307996127518	0.9953021410812602	24113.12995955769
168.4480746791132	17225.401592948547	23762.661747827504	0.9951909679196067	23624.88230684846
169.65127521253544	16863.437423385545	23273.584600685033	0.9950797947579533	23136.63465413924
170.85447574595767	16501.473253822543	22784.0759844848	0.9949686215962998	22648.387001430023
172.0576762793799	16139.50908425954	22294.135328004944	0.9948574484346464	22160.139348720804
173.26087681280214	15777.54491469654	21803.762059014854	0.994746275272993	21671.891696011586
174.46407734622437	15415.580745133537	21312.955604272905	0.9946351021113395	21183.644043302367
175.6672778796466	15053.616575570537	20821.71538952427	0.994523928949686	20695.39639059315
176.87047841306887	14691.652406007526	20330.04083949863	0.9944127557880326	20207.14873788392
178.0736789464911	14329.688236444523	19837.931377907975	0.9943015826263791	19718.9010851747
179.27687947991333	13967.724066881521	19345.386427444326	0.9941904094647257	19230.653432465482
180.48008001333557	13718.875662428703	18999.485533776497	0.9939692033667841	18890.430244230265
181.6832805467578	13640.407879173088	18875.13747988505	0.9935822601585583	18773.168905609007
182.88648108018003	13561.940095917475	18750.995638635057	0.9931953169503326	18655.90756698775
184.08968161360227	13483.47231266186	18627.059497492293	0.9928083737421068	18538.64622836649
185.2928821470245	13405.004529406247	18503.328545619628	0.9924214305338811	18421.384889745234
186.49608268044676	13326.53674615063	18379.80227387002	0.9920344873256554	18304.123551123972
187.699283213869	13248.068962895015	18256.480174779543	0.9916475441174296	18186.862212502714
188.90248374729123	13169.601179639401	18133.361742560424	0.991260600909204	18069.600873881453
190.10568428071346	13091.133396383788	18010.446473094125	0.9908736577009782	17952.339535260195
191.3088848141357	13012.665613128174	17887.73386392448	0.9904867144927525	17835.078196638937
192.51208534755793	12934.197829872559	17765.223414250828	0.9900997712845268	17717.81685801768
193.71528588098016	12855.730046616945	17642.91462492122	0.989712828076301	17600.555519396417
194.91848641440242	12777.26226336133	17520.80699842562	0.9893258848680753	17483.294180775156
196.12168694782466	12698.794480105715	17398.900038889184	0.9889389416598495	17366.032842153898
197.3248874812469	12620.326696850101	17277.19325206552	0.9885519984516238	17248.77150353264
198.52808801466912	12541.858913594486	17155.686145330026	0.9881650552433981	17131.510164911382
199.73128854809136	12463.391130338874	17034.37822767324	0.9877781120351724	17014.248826290124
200.9344890815136	12384.923347083259	16913.269009694224	0.9873911688269467	16896.987487668866
202.13768961493582	12306.455563827645	16792.35800359398	0.9870042256187209	16779.726149047605
203.34089014835806	12227.987780572032	16671.64472316892	0.9866172824104952	16662.464810426347
204.54409068178032	12149.519997316414	16551.12868380431	0.9862303392022694	16545.20347180509
205.74729121520255	12071.052214060801	16430.809402467825	0.9858433959940437	16427.942133183828
206.95049174862478	11992.584430805186	16310.68639770308	0.985456452785818	16310.680794562568
208.15369228204702	11914.116647549574	16190.7591896232	0.9850695095775923	16193.41945594131
209.35689281546925	11835.648864293958	16071.027299904435	0.9846825663693666	16076.158117320052
210.56009334889148	11757.181081038345	15951.490251779815	0.9842956231611408	15958.896778698794
211.76329388231372	11678.71329778273	15832.147570032788	0.9839086799529151	15841.635440077536
212.96649441573598	11600.245514527114	15712.998780990967	0.9835217367446893	15724.374101456273
214.1696949491582	11521.7777312715	15594.04341251983	0.9831347935364636	15607.112762835015
215.37289548258045	11443.309948015885	15475.28099401649	0.9827478503282379	15489.851424213757
216.57609601600268	11364.842164760272	15356.711056403501	0.9823609071200121	15372.5900855925
217.7792965494249	11286.374381504658	15238.333132122669	0.9819739639117865	15255.32874697124
218.98249708284715	11207.906598249045	15120.146755128912	0.9815870207035607	15138.067408349982
220.18569761626938	11129.43881499343	15002.151460884148	0.981200077495335	15020.806069728722
221.3888981496916	11050.971031737816	14884.346786351198	0.9808131342871093	14903.544731107462
222.59209868311387	10972.5032484822	14766.732269987737	0.9804261910788835	14786.283392486203
223.7952992165361	10894.035465226587	14649.307451740273	0.9800392478706578	14669.022053864943
224.99849974995834	10815.567681970972	14532.071873038127	0.979652304662432	14551.760715243685
226.20170028338057	10737.099898715356	14415.025076787486	0.9792653614542063	14434.499376622427
227.4049008168028	10658.632115459744	14298.166607365458	0.9788784182459807	14317.238038001167
228.60810135022504	10580.16433220413	14181.496010614137	0.9784914750377549	14199.97669937991
229.81130188364727	10501.696548948516	14065.012833834759	0.9781045318295292	14082.715360758652
231.01450241706954	10423.228765692898	13948.71662578181	0.9777175886213034	13965.45402213739
232.21770295049177	10344.760982437287	13832.60693665723	0.9773306454130777	13848.192683516132
233.420903483914	10266.293199181671	13716.683318104582	0.9769437022048519	13730.931344894874
234.62410401733624	10187.825415926056	13600.945323203312	0.9765567589966262	13613.670006273613
235.82730455075847	10109.357632670442	13485.392506462982	0.9761698157884005	13496.408667652355
237.0305050841807	10030.889849414829	13370.024423817576	0.9757828725801748	13379.147329031097
238.23370561760294	9952.422066159215	13254.840632619782	0.9753959293719491	13261.885990409837
239.43690615102517	9873.9542829036	13139.840691635358	0.9750089861637233	13144.62465178858
240.64010668444746	9795.486499647985	13025.024161037483	0.9746220429554976	13027.363313167318
241.84330721786966	9717.018716392371	12910.39060240117	0.9742350997472718	12910.10197454606
243.04650775129193	9638.550933136756	12795.939578697651	0.9738481565390461	12792.8406359248
244.24970828471413	9560.08314988114	12681.67065428885	0.9734612133308204	12675.579297303542
245.4529088181364	9481.61536662553	12567.583394921849	0.9730742701225946	12558.317958682284
246.6561093515586	9403.147583369915	12453.677367723383	0.972687326914369	12441.056620061026
247.85930988498086	9324.6798001143	12339.95214119437	0.9723003837061432	12323.795281439769
249.06251041840306	9246.212016858684	12226.407285204465	0.9719134404979175	12206.533942818509
250.26571095182533	9167.74423360307	12113.042370986625	0.9715264972896918	12089.272604197246
251.46891148524753	9089.276450347455	11999.856971131729	0.971139554081466	11972.011265575988
252.6721120186698	9010.80866709184	11886.850659583191	0.9707526108732403	11854.749926954728
253.875312552092	8932.340883836227	11774.023011631623	0.9703656676650145	11737.48858833347
255.07851308551426	8853.873100580615	11661.373603909513	0.9699787244567888	11620.227249712212
256.2817136189365	8775.405317324998	11548.90201438592	0.969591781248563	11502.965911090952
257.4849141523587	8696.937534069384	11436.607822361228	0.9692048380403374	11385.704572469695
258.688114685781	8618.469750813769	11324.490608461869	0.9688178948321117	11268.443233848433
259.8913152192032	8540.001967558159	11212.549954635135	0.9684309516238859	11151.181895227179
261.09451575262545	8461.53418430254	11100.785444143936	0.9680440084156602	11033.920556605917
262.29771628604766	8383.066401046928	10989.1966615617	0.9676570652074344	10916.659217984661
263.5009168194699	8304.598617791313	10877.783192767143	0.9672701219992087	10799.3978793634
264.7041173528922	8226.130834535697	10766.544624939212	0.966883178790983	10682.136540742136
265.9073178863144	8147.663051280084	10655.480546551951	0.9664962355827573	10564.875202120882
267.11051841973665	8069.1952680244685	10544.59054736944	0.9661092923745316	10447.61386349962
268.31371895315885	7990.727484768857	10433.87421844074	0.9657223491663058	10330.352524878366
269.5169194865811	7912.2597015132405	10323.331152094854	0.9653354059580801	10213.091186257105
270.7201200200033	7833.791918257628	10212.960941935755	0.9649484627498544	10095.829847635849
271.9233205534256	7755.324135002013	10102.76318283737	0.9645615195416286	9978.568509014585
273.12652108684784	7676.856351746396	9992.737470938648	0.9641745763334029	9861.307170393324
274.32972162027005	7598.388568490784	9882.883403638618	0.9637876331251771	9744.04583177207
275.5329221536923	7519.920785235167	9773.200579591467	0.9634006899169514	9626.784493150808
276.7361226871145	7441.453001979557	9663.688598701681	0.9630137467087257	9509.523154529554
277.9393232205368	7362.98521872394	9554.347062119139	0.9626268035005	9392.261815908292
279.142523753959	7284.517435468328	9445.175572234319	0.9622398602922743	9275.000477287034
280.34572428738124	7206.049652212711	9336.173732673431	0.9618529170840485	9157.739138665773
281.5489248208035	7127.581868957096	9227.34114829366	0.9614659738758228	9040.477800044513
282.7521253542257	7049.114085701483	9118.67742517837	0.961079030667597	8923.216461423257
283.955325887648	6970.646302445867	9010.182170632344	0.9606920874593713	8805.955122801995
285.1585264210702	6892.1785191902545	8901.85499317708	0.9603051442511455	8688.69378418074
286.36172695449244	6813.710735934639	8793.695502546054	0.9599182010429198	8571.432445559478
287.56492748791464	6735.242952679027	8685.703309680059	0.9595312578346942	8454.171106938222
288.7681280213369	6656.775169423411	8577.878026722512	0.9591443146264684	8336.90976831696
289.97132855475917	6578.307386167795	8470.21926701484	0.9587573714182427	8219.6484296957
291.1745290881814	6499.839602912183	8362.726645091843	0.958370428210017	8102.3870910744445
292.37772962160363	6421.371819656567	8255.399776677083	0.9579834850017912	7985.125752453182
293.58093015502584	6342.904036400954	8148.238278678331	0.9575965417935655	7867.864413831926
294.7841306884481	6264.436253145338	8041.241769182983	0.9572095985853397	7750.603075210664
295.9873312218703	6185.968469889727	7934.409867453551	0.9568226553771141	7633.341736589409
297.19053175529257	6107.500686634111	7827.742193923104	0.9564357121688883	7516.08039796815
298.3937322887148	6029.032903378498	7721.238370190827	0.9560487689606626	7398.8190593468935
299.59693282213703	5950.565120122882	7614.898019017499	0.9556618257524369	7281.557720725631
300.8001333555593	5918.37635487375	7567.944544226229	0.9551060471640519	7231.434858697585
302.0033338889815	5909.500644945381	7550.873884962105	0.9544652177529117	7215.133004253372
303.20653442240376	5900.624935017012	7533.829054606921	0.9538243883417716	7198.831149809158
304.40973495582597	5891.7492250886435	7516.809994584012	0.9531835589306314	7182.529295364945
305.61293548924823	5882.873515160275	7499.816646493703	0.9525427295194914	7166.22744092073
306.81613602267043	5873.9978052319075	7482.848952112644	0.9519019001083512	7149.925586476516
308.0193365560927	5865.122095303538	7465.9068533931395	0.951261070697211	7133.6237320323025
309.22253708951496	5856.24638537517	7448.9902924624985	0.9506202412860709	7117.321877588088
310.42573762293716	5847.370675446801	7432.099211622366	0.9499794118749307	7101.020023143875
311.6289381563594	5838.494965518432	7415.233553348065	0.9493385824637905	7084.718168699661
312.83213868978163	5829.619255590064	7398.393260287953	0.9486977530526505	7068.416314255447
314.0353392232039	5820.743545661696	7381.578275262764	0.9480569236415103	7052.114459811233
315.2385397566261	5811.867835733327	7364.788541264963	0.9474160942303702	7035.812605367019
316.44174029004836	5802.992125804958	7348.024001458106	0.94677526481923	7019.5107509228055
317.6449408234706	5794.116415876589	7331.2845991761915	0.9461344354080898	7003.208896478591
318.8481413568928	5785.240705948221	7314.57027792303	0.9454936059969498	6986.907042034377
320.0513418903151	5776.364996019853	7297.8809813716	0.9448527765858096	6970.605187590163
321.2545424237373	5767.489286091484	7281.2166533634245	0.9442119471746695	6954.303333145949
322.45774295715955	5758.613576163115	7264.57723790793	0.9435711177635293	6938.001478701736
323.66094349058176	5749.737866234746	7247.962679181832	0.9429302883523892	6921.699624257522
324.864144024004	5740.862156306378	7231.3729215285	0.942289458941249	6905.397769813308
326.0673445574262	5731.98644637801	7214.807909457344	0.9416486295301089	6889.095915369095
327.2705450908485	5723.110736449641	7198.267587643186	0.9410078001189688	6872.79406092488
328.47374562427075	5714.235026521273	7181.7519009256575	0.9403669707078286	6856.492206480666
329.67694615769295	5705.359316592904	7165.260794308576	0.9397261412966885	6840.190352036452
330.8801466911152	5696.483606664535	7148.794212959335	0.9390853118855483	6823.888497592238
332.0833472245374	5687.607896736167	7132.352102208302	0.9384444824744081	6807.586643148025
333.2865477579597	5678.732186807798	7115.93440754821	0.9378036530632681	6791.284788703811
334.4897482913819	5669.8564768794295	7099.541074633557	0.9371628236521279	6774.982934259598
335.69294882480415	5660.980766951061	7083.1720492800005	0.9365219942409877	6758.681079815383
336.8961493582264	5652.105057022692	7066.827277463767	0.9358811648298476	6742.379225371168
338.0993498916486	5643.229347094324	7050.50670532106	0.9352403354187074	6726.077370926955
339.3025504250709	5634.353637165956	7034.210279147456	0.9345995060075674	6709.775516482741
340.5057509584931	5625.477927237587	7017.937945397329	0.9339586765964272	6693.473662038528
341.70895149191534	5616.602217309218	7001.6896506832545	0.933317847185287	6677.171807594314
342.91215202533755	5607.726507380849	6985.465341775436	0.9326770177741469	6660.8699531501
344.1153525587598	5598.850797452482	6969.264965601108	0.9320361883630067	6644.568098705886
345.31855309218207	5589.9750875241125	6953.088469243974	0.9313953589518666	6628.266244261671
346.5217536256043	5581.099377595744	6936.93579994362	0.9307545295407265	6611.964389817458
347.72495415902654	5572.223667667375	6920.806905094943	0.9301137001295863	6595.662535373243
348.92815469244874	5563.347957739006	6904.701732247585	0.9294728707184462	6579.3606809290295
350.131355225871	5554.472247810639	6888.620229105353	0.928832041307306	6563.058826484817
351.3345557592932	5545.59653788227	6872.562343525666	0.9281912118961659	6546.756972040603
352.53775629271547	5536.720827953901	6856.528023518983	0.9275503824850257	6530.455117596389
353.74095682613773	5527.845118025532	6840.517217248246	0.9269095530738856	6514.153263152174
354.94415735955994	5518.969408097164	6824.529873028318	0.9262687236627455	6497.85140870796
356.1473578929822	5510.0936981687955	6808.565939325429	0.9256278942516053	6481.549554263746
357.3505584264044	5501.217988240427	6792.6253647566255	0.9249870648404652	6465.2476998195325
358.55375895982667	5492.342278312059	6776.708098089208	0.924346235429325	6448.945845375319
359.75695949324887	5483.46656838369	6760.8140882401995	0.9237054060181848	6432.643990931106
360.96016002667113	5474.590858455321	6744.943284275779	0.9230645766070448	6416.342136486891
362.16336056009334	5465.715148526953	6729.095635410759	0.9224237471959046	6400.040282042678
363.3665610935156	5456.839438598584	6713.271091008023	0.9217829177847645	6383.738427598463
364.56976162693786	5447.9637286702155	6697.469600578002	0.9211420883736243	6367.436573154249
365.77296216036007	5439.088018741847	6681.691113778128	0.9205012589624841	6351.1347187100355
366.9761626937823	5430.212308813478	6665.935580412302	0.9198604295513441	6334.832864265822
368.17936322720453	5421.33659888511	6650.2029504303655	0.9192196001402039	6318.531009821609
369.3825637606268	5412.460888956742	6634.493173927566	0.9185787707290638	6302.229155377394
370.585764294049	5403.585179028373	6618.806201144032	0.9179379413179236	6285.927300933181
371.78896482747126	5394.709469100004	6603.141982464239	0.9172971119067834	6269.625446488966
372.9921653608935	5385.833759171635	6587.500468416504	0.9166562824956433	6253.323592044751
374.1953658943157	5376.958049243267	6571.881609672451	0.9160154530845032	6237.0217376005385
375.398566427738	5368.0823393148985	6556.285357046493	0.915374623673363	6220.719883156324
376.6017669611602	5359.20662938653	6540.711661495321	0.9147337942622229	6204.418028712111
377.80496749458246	5350.330919458161	6525.160474117385	0.9140929648510827	6188.116174267897
379.00816802800466	5341.455209529792	6509.63174615239	0.9134521354399426	6171.814319823683
380.2113685614269	5332.579499601424	6494.125428980777	0.9128113060288024	6155.512465379469
381.4145690948492	5323.703789673055	6478.641474123217	0.9121704766176623	6139.210610935254
382.6177696282714	5314.828079744687	6463.179833240116	0.9115296472065222	6122.9087564910415
383.82097016169365	5305.952369816318	6447.740458131099	0.910888817795382	6106.606902046827
385.02417069511586	5297.07665988795	6432.323300734516	0.9102479883842419	6090.305047602613
386.2273712285381	5288.200949959581	6416.9283131269385	0.9096071589731017	6074.003193158399
387.4305717619603	5279.325240031213	6401.555447522673	0.9089663295619617	6057.701338714185
388.6337722953826	5270.449530102845	6386.204656273252	0.9083255001508215	6041.399484269972
