frame_start	frame_end	parasubiculum	HATA	fimbria	hippocampal_fissure	HP_tail	presubiculum-head	presubiculum-body	subiculum-head	subiculum-body	CA1-head	CA1-body	CA3-head	CA3-body	CA4-head	CA4-body	GC-ML-DG-head	GC-ML-DG-body	molecular_layer_HP-head	molecular_layer_HP-body	Lateral-nucleus	Basal-nucleus	Central-nucleus	Medial-nucleus	Cortical-nucleus	Accessory-Basal-nucleus	Corticoamygdaloid-transitio	Anterior-amygdaloid-area-AAA	Paralaminar-nucleus
0	30	4.09348	0.23889	0.39045	0.35175	0.71488	0.9985	2.14682	0.09628	1.71006	0.81616	8.61268	0.22641	0.17019	0.19211	0.12261	0.35603	0.33402	0.15489	1.25986	42.67878	8.4548	0.42476	0.0101	0.01029	0.49902	0.36866	8.82077	0.41416
30	60	739.99969	925.34367	754.82664	906.62666	387.37014	800.65333	718.48911	1300.31895	472.17317	779.13164	317.47291	1264.48191	407.42598	1204.06507	443.93911	1101.96607	468.66988	1095.45798	448.18205	158.95853	391.8569	551.76794	764.09791	652.44018	710.96568	895.96025	597.26256	398.33384
60	90	2172.11667	2648.07429	2580.68858	1865.63003	1981.93957	1881.40766	2390.54677	1275.15298	1971.08925	1402.43505	1519.00737	2066.69208	2266.45384	1761.93251	2283.87799	1785.34336	2258.95431	1466.52219	2123.87488	881.76692	1268.22832	2135.08559	2801.58369	2473.80752	2050.8373	2091.82232	2773.29988	1314.6962
90	120	2903.71807	3683.00063	3261.67084	2625.38319	3514.5568	2499.25757	3153.85851	1942.22209	3393.84629	2558.45368	2327.14391	3604.67098	3063.71752	2468.67887	3341.00741	2733.91005	3217.93905	2352.48724	3041.37597	2015.56329	2172.83768	2593.24901	3168.46216	2773.31959	2363.41638	2648.4675	3728.28112	2163.12619
120	150	4102.94046	3746.27374	4625.73458	4069.79121	4355.53243	3945.31679	4135.7027	3491.01054	3237.59971	3396.39368	2796.20302	4133.07178	4235.07593	3557.09355	3893.74017	3768.10965	3798.86128	3766.68821	3627.14297	1897.23786	2321.67844	2860.68431	3152.39873	3049.84257	2603.66988	3262.67401	2948.21458	2775.04215
150	180	3990.04623	4106.47617	4401.52936	3673.39252	4278.66261	4168.58531	4190.23106	3713.86793	3046.00492	3465.45876	2360.03238	3998.25869	3229.6138	3644.82092	3328.35232	3601.67374	3324.88605	3713.99111	3015.82086	4087.94532	3497.67887	3292.48354	3715.80376	3817.28111	3509.21283	3688.34349	3445.07669	4346.48523
180	240	3898.45672	3597.28377	3711.01238	3917.58952	3576.92256	4256.78456	3421.51901	3614.08403	3777.35314	3497.4494	3585.85574	4250.60465	4177.80369	4026.6189	3875.81444	4066.6974	3883.85877	3954.09835	3844.93552	3512.48542	3480.71344	4005.04909	3547.07954	4464.48854	4106.25023	3591.29352	4535.11333	3541.25452
240	300	2884.85701	3475.76545	4141.76518	3148.70302	4041.80031	2968.53804	3691.46671	3109.8427	3826.5903	2885.33136	3319.00258	4145.27961	4148.33525	3296.76488	4158.48507	3181.68311	4040.84397	2989.45004	3859.89669	2779.73852	3466.99518	4310.17721	3390.45137	3423.84996	3951.85628	3639.86934	3982.76319	2841.93395
300	360	3048.41171	2631.19537	4326.58743	3514.3576	3925.26689	3494.96107	3650.98895	3159.22782	3811.72519	2886.25463	2971.49093	3984.07543	3940.76984	4222.62801	4083.34111	3922.24115	4013.67973	3408.52568	3700.9674	2691.81164	2907.30533	2749.86789	2537.70596	2458.73192	2691.22085	2799.44983	2527.59306	3084.75205
360	480	3017.34594	2761.14681	3755.55125	3398.51391	3650.95756	3324.64198	3499.89284	3393.33785	3098.47977	2931.45296	2672.44054	3515.01559	3432.00076	3362.66272	3230.92881	3223.07586	3204.24899	3170.46863	3027.96368	3155.388	3504.16917	2868.09345	3129.27554	2974.95913	2726.91799	2750.92009	3497.47319	3772.97609
480	600	3230.16237	2934.02844	3279.11951	3257.48387	3655.69124	3364.51921	2995.67212	2945.68245	3151.86417	2933.69974	2694.67938	4014.2487	3227.56866	3449.2582	3262.1281	3355.63081	3176.54954	3266.57965	3044.23383	3047.56389	3309.51384	3824.37045	4092.47441	3610.24402	3353.45651	3024.90831	3591.90781	2894.4407
600	900	2823.81948	2698.10619	3421.5442	3182.58005	3400.23983	3142.83097	2943.22602	2793.53927	2927.57853	2826.41267	2682.83726	3847.65159	3596.80651	3506.52466	3507.22575	3320.6633	3331.43597	3124.52664	3152.51644	2952.47344	3498.75927	3233.54805	2927.2499	2996.97087	3203.89664	2987.58267	3782.80066	3151.27403
900	1200	2401.84119	2890.61314	3217.65228	2905.78904	2781.02372	2747.3538	2891.91682	2763.08323	2850.60743	2594.69832	2616.55182	3167.31065	3267.09808	2736.54281	3294.56327	2737.93995	3167.17277	2785.64383	3030.31646	2787.56029	3017.12411	2794.94533	3161.10483	3106.16958	2817.77939	2584.09505	2829.15079	3004.71007
1200	1500	2555.48646	2865.67903	3037.15912	2849.96695	2681.08354	2756.54197	2679.01799	2636.20479	2508.93328	2662.94926	2149.37315	3162.17569	2804.42781	2930.46758	2855.59016	2874.76052	2752.59137	2794.69706	2570.9742	2533.72198	2506.0006	2880.34225	2703.5021	3121.42885	2961.13913	2775.2939	2385.36238	2630.72356
1500	1800	2229.12174	2412.08159	2762.78675	2487.84549	2239.21239	2509.32038	2266.55492	2456.03843	2053.93027	2190.31566	1937.00614	2953.05198	2630.49117	2910.38466	2486.63481	2718.74456	2396.25562	2542.55847	2260.49091	2262.75475	2297.68491	2772.63488	3019.88521	3070.81546	2574.10074	2361.77661	2533.85669	2238.25095
1800	2100	1943.61187	1924.55324	2445.54473	2307.49928	2225.72583	2138.12152	2112.08102	2127.29407	2146.22005	2084.61095	2022.7455	2593.16822	2377.17261	2437.73361	2394.53477	2373.36438	2338.45465	2300.53495	2242.60466	2156.26514	2126.80025	2136.62195	2101.88259	2232.12882	2038.97044	1978.48343	1996.04952	2319.41469
2100	2400	1935.28672	1777.49749	2245.09601	2135.3265	2131.1341	2182.21761	2083.20114	2093.53592	2053.4397	1931.37102	1854.68788	2211.35077	2284.104	2238.79828	2195.19174	2236.84018	2134.45508	2125.33689	2096.45858	2041.48653	1975.17004	2290.6078	2247.63276	2223.58646	2230.1755	1829.4555	1779.75325	1858.62063
2400	2700	1721.63717	1903.39334	2151.81903	1995.05708	1724.07589	1943.68333	1960.9056	1953.24922	1968.14169	1770.78692	1828.00593	2413.87426	2286.94353	1964.62581	2224.63196	1950.04319	2147.9131	1911.3565	2088.4599	2008.70207	1648.52243	2361.32319	2642.82002	2653.30793	1988.08595	1809.26898	1792.11334	1593.88476
2700	3000	1641.4372	1745.86356	2049.31926	1797.57624	1692.14073	1710.60338	1796.14842	1687.3094	1671.9484	1666.63625	1527.98643	2047.96948	1971.18903	1867.03889	1827.31384	1836.27392	1802.02904	1768.29743	1743.5304	1723.0005	1603.22628	1787.6772	2116.60479	2142.39979	1725.61852	1746.03065	1553.34192	1474.66329
3000	3300	1679.71056	1906.40399	2059.51757	1863.45387	1683.82974	1711.88812	1621.20175	1581.56853	1720.57492	1711.59891	1662.34637	2177.10672	2010.01486	1769.26913	1906.49458	1764.49834	1881.07735	1786.58042	1792.98243	1748.51049	1564.41011	1964.78883	2084.27693	2074.5532	1603.95455	1503.21914	1953.56772	1614.60349
3300	3600	1911.42509	1379.56296	1896.31259	1790.56291	1772.46182	1734.35425	1832.58668	1523.39604	1596.40419	1585.13978	1523.57221	1587.71714	1901.58939	1462.78004	1782.87346	1497.41286	1747.90448	1540.00871	1694.57036	1573.61947	1543.48469	1767.69493	1860.26165	2032.40429	1695.3077	1487.97099	1365.37916	1603.81357
3600	3900	1478.29928	1532.57062	1689.42285	1588.21614	1424.57373	1487.5819	1603.304	1466.61175	1492.17345	1358.35454	1430.58816	2039.47599	1702.23679	1531.30663	1616.2514	1513.38317	1553.99243	1464.02828	1529.94661	1632.8267	1310.69949	1730.07971	1688.29607	1801.18637	1548.36002	1446.98528	1347.90361	1397.9172
3900	4200	1352.15988	1637.02109	1749.50332	1483.75882	1410.72389	1297.50316	1478.05319	1470.76264	1521.83046	1429.96308	1549.25773	1667.41031	1785.55644	1494.13913	1704.43876	1475.49955	1671.04425	1476.38434	1649.69316	1391.98263	1332.03412	1957.333	1996.92336	2099.11261	1643.67992	1478.69045	1294.86891	1397.16762
4200	4500	1360.12524	1128.01384	1637.38388	1393.46508	1319.7971	1417.92135	1433.27865	1489.27851	1297.02475	1364.31001	1367.0431	1758.9344	1723.86317	1581.92276	1490.22749	1523.06952	1481.20021	1546.49995	1448.04186	1386.07008	1271.24475	1513.91567	1415.69058	1455.05416	1459.00832	1421.09033	1166.57376	1265.95485
4500	4800	1199.80458	1540.52374	1556.9141	1358.76318	1315.73897	1308.30988	1433.14441	1258.90492	1169.87096	1277.4774	1248.6828	1728.10715	1601.45649	1188.70036	1411.17278	1230.63924	1392.14657	1323.58386	1366.80133	1379.90391	1410.63742	1941.42374	1745.57065	1694.25678	1574.68163	1358.587	1087.50727	1480.45507
4800	5100	1292.94958	1199.35036	1721.1214	1448.41212	1280.7418	1377.5439	1420.13265	1314.33949	1319.82949	1146.36092	1353.55468	1491.79975	1933.92684	1347.82318	1811.82099	1343.60064	1715.69279	1297.46033	1622.91192	1243.68709	1162.92686	1340.37181	1491.83467	1779.24148	1395.96168	1378.16908	842.16469	1070.79224
5100	5400	1077.97458	1370.35771	1428.71216	1168.92491	1207.46463	1136.25302	1233.74656	1268.57262	1164.09103	1149.58413	1005.32115	1213.85596	1372.54817	1099.5162	1299.95687	1137.6383	1275.28892	1141.16406	1206.24641	1230.97396	1388.89225	2016.55403	1901.4429	1934.13928	1775.35663	1472.26941	1250.85945	1015.18307
5400	5700	1014.32011	1377.31609	1520.9674	1363.49197	1208.19455	1147.47256	1349.68099	1215.01395	1292.1905	1218.90811	1416.38115	1450.371	1610.02358	1360.9586	1523.01432	1321.06691	1497.42858	1253.48034	1461.5376	1367.65001	1371.3814	1270.8363	1386.48557	1516.71805	1333.31241	1304.47339	1191.85858	1175.97241
5700	6000	1166.43815	1288.25756	1499.2664	1284.99957	1153.79119	1145.78319	1396.75468	1065.45971	1304.67632	1161.17351	1095.8755	1484.18265	1611.79142	1033.0438	1591.28007	1106.41564	1503.95253	1123.32212	1439.58588	1427.63075	1220.13489	1741.85059	1590.59609	1586.06314	1498.94256	1248.15418	1489.68698	999.54234
6000	6300	1547.38934	1194.83135	1311.23444	1376.55086	1062.40239	1545.28777	1201.64132	1218.46872	1171.30228	1138.46714	1333.49706	1416.71203	1589.0088	1352.05538	1423.64188	1323.71085	1368.10827	1254.48881	1344.37335	1356.65251	1031.4254	1100.11699	1137.96421	1132.4283	1163.73711	1213.06212	1162.99409	1012.67262
6300	6600	1179.83025	1139.23348	1374.5076	1286.8313	1307.10955	1373.17709	1226.6534	1073.01872	1100.00586	1162.02605	1123.87552	1603.73956	1396.37693	1336.26522	1308.86349	1257.39694	1249.42746	1273.16861	1209.29708	932.19679	1093.7836	1358.40371	1372.67681	1568.03261	1298.09151	1204.49878	1221.36451	1168.55536
6600	6900	1013.12261	1066.44183	1525.83269	1107.51541	1213.25752	1163.69846	1231.18678	958.17137	1176.32352	1092.39965	1278.67298	1566.12478	1440.14872	1279.41395	1351.82379	1217.3942	1334.20275	1147.29428	1313.84731	1323.74231	1291.59552	1163.79913	1151.16577	1196.97779	1306.0623	1157.02041	1022.81223	1271.69081
6900	7200	972.23384	1313.4333	1512.89667	1206.10025	1228.811	1071.47013	1401.21757	1056.72875	1219.89951	976.592	1201.56577	1245.07413	1625.08717	992.2649	1534.71413	1025.18805	1471.35693	1015.31762	1388.08651	915.04835	1007.31959	1540.44737	1553.14651	1600.65415	1355.63645	1180.31215	970.24442	974.28674
