frame_start	frame_end	Left-Cerebral-White-Matter	Left-Cerebellum-White-Matter	Left-Cerebellum-Cortex	Left-Thalamus	Left-Caudate	Left-Putamen	Left-Pallidum	Brain-Stem	Left-Hippocampus	Left-Amygdala	CSF	Left-Accumbens-area	Left-VentralDC	Left-choroid-plexus	Right-Cerebral-White-Matter	Right-Cerebellum-White-Matter	Right-Cerebellum-Cortex	Right-Thalamus	Right-Caudate	Right-Putamen	Right-Pallidum	Right-Hippocampus	Right-Amygdala	Right-Accumbens-area	Right-VentralDC	Right-choroid-plexus	AirCavity	Skull	Vermis	Pons	CSF-ExtraCerebral	Head-ExtraCerebral	ctx-lh-bankssts	ctx-lh-caudalanteriorcingulate	ctx-lh-caudalmiddlefrontal	ctx-lh-cuneus	ctx-lh-entorhinal	ctx-lh-fusiform	ctx-lh-inferiorparietal	ctx-lh-inferiortemporal	ctx-lh-isthmuscingulate	ctx-lh-lateraloccipital	ctx-lh-lateralorbitofrontal	ctx-lh-lingual	ctx-lh-medialorbitofrontal	ctx-lh-middletemporal	ctx-lh-parahippocampal	ctx-lh-paracentral	ctx-lh-parsopercularis	ctx-lh-parsorbitalis	ctx-lh-parstriangularis	ctx-lh-pericalcarine	ctx-lh-postcentral	ctx-lh-posteriorcingulate	ctx-lh-precentral	ctx-lh-precuneus	ctx-lh-rostralanteriorcingulate	ctx-lh-rostralmiddlefrontal	ctx-lh-superiorfrontal	ctx-lh-superiorparietal	ctx-lh-superiortemporal	ctx-lh-supramarginal	ctx-lh-frontalpole	ctx-lh-temporalpole	ctx-lh-transversetemporal	ctx-lh-insula	ctx-rh-bankssts	ctx-rh-caudalanteriorcingulate	ctx-rh-caudalmiddlefrontal	ctx-rh-cuneus	ctx-rh-entorhinal	ctx-rh-fusiform	ctx-rh-inferiorparietal	ctx-rh-inferiortemporal	ctx-rh-isthmuscingulate	ctx-rh-lateraloccipital	ctx-rh-lateralorbitofrontal	ctx-rh-lingual	ctx-rh-medialorbitofrontal	ctx-rh-middletemporal	ctx-rh-parahippocampal	ctx-rh-paracentral	ctx-rh-parsopercularis	ctx-rh-parsorbitalis	ctx-rh-parstriangularis	ctx-rh-pericalcarine	ctx-rh-postcentral	ctx-rh-posteriorcingulate	ctx-rh-precentral	ctx-rh-precuneus	ctx-rh-rostralanteriorcingulate	ctx-rh-rostralmiddlefrontal	ctx-rh-superiorfrontal	ctx-rh-superiorparietal	ctx-rh-superiortemporal	ctx-rh-supramarginal	ctx-rh-frontalpole	ctx-rh-temporalpole	ctx-rh-transversetemporal	ctx-rh-insula
0	30	7.271801471710205	3.3351175785064697	7.644425392150879	10.183244705200195	2.331754684448242	8.128487586975098	2.9636645317077637	6.233160972595215	4.777223110198975	1.7942312955856323	5.842552661895752	0.14472217857837677	15.937090873718262	4.48928689956665	7.280457496643066	1.982619047164917	5.564228534698486	4.752392292022705	9.186095237731934	2.986400842666626	0.09574847668409348	1.1331813335418701	25.579275131225586	0.40540918707847595	1.5268157720565796	0.706265926361084	9.217278480529785	5.192862033843994	4.930455684661865	4.900323390960693	7.184508323669434	3.3383100032806396	0.978810727596283	6.32280969619751	13.863245964050293	4.968423843383789	2.0778322219848633	9.697354316711426	6.242985725402832	4.233062267303467	11.515337944030762	2.3997552394866943	18.747060775756836	3.7349565029144287	7.018871784210205	6.831343173980713	6.871731758117676	4.701969623565674	8.54566478729248	18.026262283325195	15.716126441955566	1.3404502868652344	6.864935398101807	5.8075408935546875	9.431988716125488	4.694502353668213	8.678566932678223	6.950839996337891	4.602869510650635	4.9034953117370605	8.08902359008789	3.9602041244506836	3.0137906074523926	22.473587036132812	5.625546455383301	16.079925537109375	3.858050584793091	7.51525354385376	10.735042572021484	9.626654624938965	1.9810224771499634	4.387693881988525	3.8741602897644043	1.9875876903533936	23.60202980041504	6.50600004196167	4.403425216674805	3.7331011295318604	20.176111221313477	8.222701072692871	4.669119834899902	18.906766891479492	6.868399620056152	3.2769393920898438	6.797360897064209	1.8890504837036133	7.397097587585449	15.035440444946289	7.676952838897705	6.877739429473877	24.844350814819336	7.579679489135742	9.370598793029785	4.772513389587402	13.486405372619629	2.166879653930664	0.014771975576877594	8.579818725585938	27.152767181396484	21.222309112548828
30	60	491.4394836425781	536.657958984375	742.2604370117188	757.9224243164062	798.116943359375	784.9524536132812	536.0619506835938	607.8760986328125	706.6527099609375	806.8378295898438	559.2178955078125	735.3676147460938	690.2982788085938	816.0972290039062	484.2362976074219	448.7710876464844	754.6569213867188	733.779541015625	648.927490234375	671.3696899414062	603.9561767578125	697.7437133789062	404.508056640625	483.7877197265625	651.8009033203125	541.6299438476562	233.95233154296875	317.6252136230469	727.893798828125	519.0347900390625	827.7537841796875	275.6280822753906	644.1441040039062	989.4104614257812	578.66259765625	1191.093017578125	829.9976196289062	851.734130859375	611.5635986328125	614.3198852539062	1043.8111572265625	667.4489135742188	713.3467407226562	933.6444091796875	994.778564453125	582.5230712890625	714.8887329101562	737.5808715820312	859.6615600585938	563.2554321289062	793.9602661132812	936.4638671875	815.379150390625	910.6864013671875	699.996826171875	827.6839599609375	826.5455932617188	706.2967529296875	829.5885620117188	714.2178344726562	662.71240234375	683.56689453125	689.1046142578125	554.9435424804688	882.2984619140625	928.5477905273438	626.5946655273438	713.7804565429688	742.7047119140625	917.7960815429688	930.8782348632812	688.9254760742188	567.03955078125	621.2645874023438	808.6664428710938	727.6522216796875	777.251220703125	884.3486938476562	710.5496215820312	612.3433227539062	706.328857421875	601.2657470703125	791.8924560546875	692.9268188476562	670.5244140625	877.4791870117188	728.0960693359375	696.5753173828125	678.0396118164062	717.5758056640625	677.3937377929688	705.517822265625	640.6287231445312	662.2075805664062	650.3673706054688	657.14404296875	762.8855590820312	548.5617065429688	1153.77880859375	920.9948120117188
60	90	1420.7066650390625	1576.3876953125	2150.93359375	2233.764404296875	1764.5213623046875	2174.53857421875	1290.776611328125	1796.151611328125	1787.653076171875	1214.328125	1442.5743408203125	1632.78955078125	1843.2353515625	2163.685546875	1365.89453125	1402.1341552734375	2049.167236328125	2102.3193359375	1645.8050537109375	1944.5257568359375	1363.5386962890625	1832.760986328125	1382.369384765625	1787.8349609375	1704.227783203125	1963.833740234375	558.51171875	844.78369140625	2302.038330078125	1637.3155517578125	2009.0689697265625	807.747802734375	1830.4940185546875	1994.47412109375	1980.939453125	3251.35107421875	1879.68408203125	2380.029541015625	1671.9583740234375	1883.708251953125	2523.14013671875	2036.80029296875	1791.245361328125	2622.157958984375	2162.586181640625	1705.455322265625	2065.477294921875	2231.380615234375	2029.7198486328125	1943.1676025390625	2239.142578125	2281.63818359375	2021.449951171875	2325.54833984375	1986.82568359375	2296.02294921875	1956.442138671875	2053.718505859375	2117.425048828125	2048.313232421875	1786.8804931640625	1808.205078125	2081.5107421875	1598.6981201171875	2493.899658203125	2048.39453125	1957.717041015625	1788.2547607421875	2043.9752197265625	2143.658203125	1560.55810546875	1853.4305419921875	1648.8387451171875	1815.419921875	2305.377197265625	1914.5638427734375	2043.75439453125	2104.374267578125	1768.778564453125	1536.9068603515625	1525.12646484375	1727.500244140625	2108.80712890625	1786.7850341796875	1709.1771240234375	2293.5947265625	1814.3201904296875	2021.9344482421875	1975.0390625	2134.31982421875	1705.8193359375	2060.66015625	1963.7662353515625	1733.963623046875	1724.438232421875	1731.6805419921875	2402.26806640625	2047.7158203125	2328.771240234375	2287.91552734375
90	120	2374.4541015625	2596.6416015625	3596.144287109375	3451.23388671875	2835.24365234375	3596.6796875	2201.390625	2632.920166015625	3031.754150390625	2273.59619140625	2502.15771484375	3855.565185546875	2922.29150390625	3055.72265625	2380.426025390625	2645.08251953125	3399.450439453125	3286.48681640625	2606.13525390625	3483.115478515625	2768.91845703125	2880.595458984375	2203.2431640625	3702.68505859375	2793.80908203125	2974.342529296875	883.4808349609375	1386.8052978515625	3658.261474609375	2878.9912109375	3100.702880859375	1365.0284423828125	2758.961669921875	3634.27490234375	3322.8037109375	4884.1064453125	3416.884765625	3731.6748046875	2858.038330078125	3047.499755859375	3843.36865234375	3137.223388671875	3077.700927734375	4251.64404296875	3469.436767578125	2995.998046875	3689.429443359375	3606.548828125	3633.3251953125	3598.661376953125	3759.5302734375	4392.87255859375	3398.74609375	3733.880859375	3330.67333984375	3846.907958984375	3426.683349609375	3502.689208984375	3491.389892578125	3307.040283203125	3166.79052734375	3384.6123046875	4096.67724609375	2634.654296875	4255.00830078125	3178.865478515625	3485.94873046875	3278.31396484375	3469.24072265625	3813.078125	2747.723388671875	2945.815673828125	2750.838134765625	2942.09716796875	3715.685791015625	2925.682373046875	3396.34912109375	3579.547119140625	3206.681884765625	2844.8623046875	2945.33203125	3063.955810546875	3429.363037109375	3718.044189453125	3260.14306640625	4000.153564453125	3157.067138671875	3529.192626953125	3178.089111328125	3545.24658203125	3059.220458984375	3399.4296875	3149.00341796875	2977.695556640625	2785.904541015625	3112.89208984375	3704.3359375	2400.4697265625	3944.63232421875	3507.74560546875
120	150	3123.0927734375	3609.255615234375	4567.80712890625	4651.34716796875	3887.229736328125	3878.7255859375	2782.84521484375	3519.461669921875	3722.59814453125	3818.5537109375	3007.92626953125	3863.8671875	3896.52099609375	4903.40283203125	3147.036865234375	3516.07177734375	4623.86962890625	4456.599609375	3607.6806640625	4646.5712890625	3960.40380859375	3793.277099609375	2300.645263671875	4855.98046875	3799.31005859375	4232.08544921875	1073.687744140625	1741.222900390625	4672.39453125	3565.533935546875	3700.049072265625	1733.64111328125	3978.074462890625	4093.31591796875	4359.521484375	5766.08056640625	3298.578125	4760.08154296875	3902.32861328125	3757.55908203125	4476.19970703125	4050.2802734375	4181.42333984375	5041.15625	4187.15673828125	3938.353759765625	4588.42138671875	4766.6162109375	4713.22265625	4568.74609375	4668.25439453125	5878.46826171875	4367.41357421875	4716.8984375	4388.486328125	4639.083984375	4286.5859375	4462.62841796875	4396.30224609375	4228.81396484375	3927.03466796875	3994.206787109375	4887.583984375	3945.03271484375	4804.1484375	4185.2490234375	5465.50048828125	3899.897216796875	4857.54931640625	4885.61328125	3686.841064453125	3893.59033203125	3592.170654296875	3646.31103515625	4402.11767578125	3937.91064453125	4336.9560546875	4763.96923828125	4182.80908203125	3669.19140625	3736.451904296875	3779.439208984375	4356.38232421875	4509.86181640625	4248.89501953125	5235.31005859375	3942.628173828125	3967.512451171875	4137.7451171875	4490.91015625	4170.5966796875	4562.73828125	4279.6328125	3861.981689453125	3825.50927734375	3837.615234375	4987.69580078125	3751.827392578125	5191.203125	4256.5546875
150	180	3405.21923828125	4120.67431640625	4924.87060546875	4785.82373046875	4541.82568359375	4724.4677734375	3153.69873046875	3994.718994140625	3760.107666015625	3418.2099609375	3045.40966796875	3789.3330078125	3941.371337890625	4769.41259765625	3302.98681640625	3844.5732421875	4783.26904296875	4717.41162109375	3727.561279296875	5187.0791015625	4249.30126953125	3584.21435546875	3793.546630859375	4581.7158203125	4286.1552734375	3744.870361328125	1093.7659912109375	1830.4637451171875	5071.99755859375	4486.71484375	3631.581787109375	1928.9796142578125	4320.81103515625	4419.96240234375	4536.96826171875	5605.365234375	4244.34912109375	4830.408203125	4282.349609375	3983.415771484375	4677.462890625	4431.814453125	4605.49609375	5066.00439453125	4649.50732421875	4135.65087890625	4852.31884765625	4784.67041015625	4756.0478515625	5152.34033203125	5104.033203125	5753.763671875	4614.23876953125	5095.92578125	4437.1025390625	4946.22314453125	4008.2685546875	5024.7666015625	4605.6689453125	4218.666015625	4143.8349609375	4429.12158203125	5227.98095703125	3652.841796875	5520.7958984375	4253.64453125	4950.9072265625	3880.785888671875	4646.728515625	4684.43896484375	3908.51318359375	4408.24267578125	3887.29052734375	3916.2158203125	4511.86865234375	4047.129638671875	4624.2744140625	4761.2919921875	4483.83984375	3886.61474609375	4112.40234375	4388.607421875	4492.224609375	4559.12451171875	4474.876953125	5432.72412109375	4068.56982421875	4920.76708984375	4243.19384765625	4741.67333984375	4582.1953125	4777.72607421875	4438.67578125	4079.89990234375	3749.89306640625	4202.96337890625	4983.84912109375	3652.9912109375	5334.08154296875	4705.23486328125
180	240	3371.923583984375	4070.184326171875	4816.265625	4818.578125	4243.85791015625	4706.74462890625	3242.931396484375	3676.2353515625	4056.029052734375	3664.46142578125	3022.615234375	4261.83837890625	4146.3759765625	4859.54443359375	3311.8056640625	3616.004150390625	4761.8017578125	4582.24609375	4023.48046875	4535.6337890625	4484.560546875	3778.57421875	3661.95068359375	4054.5673828125	3800.947509765625	4151.248046875	1019.9852905273438	1829.12158203125	5319.98095703125	4221.6201171875	3449.048828125	2031.3280029296875	3962.873291015625	4531.55029296875	4559.24658203125	5493.35302734375	3840.91796875	4484.15478515625	4231.3330078125	3929.471435546875	4727.18798828125	4162.49755859375	4402.72802734375	4982.79638671875	4392.0458984375	4208.0234375	4634.69189453125	4871.6826171875	5011.7841796875	4904.6318359375	5104.24365234375	5903.650390625	4691.474609375	4944.03125	4611.88134765625	4883.99951171875	4277.60986328125	5020.41357421875	4640.16796875	4251.47802734375	4055.629150390625	4497.3955078125	4793.322265625	3703.421630859375	4526.02392578125	4192.4443359375	4819.26513671875	4223.27490234375	4903.85400390625	4781.7158203125	3798.23681640625	4162.00732421875	3879.089111328125	4052.4453125	4604.546875	3969.933837890625	4575.65478515625	4560.814453125	4356.689453125	3746.96533203125	4018.42431640625	4255.1181640625	4758.60888671875	4661.44677734375	3995.25048828125	5234.263671875	4257.0390625	4833.078125	4404.9892578125	4612.6337890625	4128.46533203125	4850.01416015625	4352.01806640625	3971.24462890625	3905.262939453125	4203.6083984375	5107.255859375	3305.55126953125	5673.5498046875	4422.2783203125
240	300	3318.404052734375	3923.599853515625	4710.83349609375	4747.8974609375	3865.91845703125	4634.94970703125	3348.239990234375	3487.7099609375	3916.1044921875	3807.15185546875	3022.6220703125	4673.47216796875	3893.3447265625	5127.369140625	3273.514404296875	3754.351318359375	4624.52099609375	4751.60986328125	4058.753173828125	4852.0302734375	3564.842529296875	3492.7548828125	3320.289306640625	4522.48095703125	4114.66015625	4176.18115234375	977.3754272460938	1829.0252685546875	4861.31298828125	4323.7646484375	3278.6484375	2042.137939453125	4107.15869140625	4200.38818359375	4928.904296875	4793.15185546875	3644.98681640625	4398.19140625	4145.8125	3761.249755859375	4546.1337890625	3931.796630859375	4014.080322265625	4723.22216796875	4317.341796875	3992.8388671875	4465.7734375	4509.98681640625	4704.2109375	4671.1435546875	5007.08544921875	5622.787109375	4422.400390625	5024.96826171875	4608.3076171875	4951.8486328125	3998.053466796875	4763.53662109375	4572.4111328125	4124.95361328125	4088.029541015625	4328.29931640625	4807.82861328125	3519.626953125	4620.0927734375	3997.814208984375	4840.20654296875	4042.024169921875	4572.9501953125	4263.87548828125	3534.365966796875	4095.76611328125	3742.368408203125	3901.460693359375	4428.7314453125	3976.622802734375	4309.83935546875	4341.3056640625	4369.28466796875	3511.6376953125	4076.74658203125	4387.017578125	4352.330078125	4584.87548828125	4093.60400390625	5053.0546875	3951.2978515625	4562.76904296875	4194.0126953125	4764.28515625	3953.956298828125	4680.49755859375	4316.6796875	3861.4052734375	3872.489013671875	4026.20751953125	5032.51806640625	3422.743896484375	5111.0966796875	4069.7861328125
300	360	3215.281494140625	3803.559814453125	4526.6796875	4561.86376953125	3970.795166015625	4642.0029296875	3228.6943359375	3595.58203125	4010.893310546875	3341.804931640625	2943.777587890625	4318.48779296875	3944.078125	4807.10986328125	3172.058837890625	3737.39794921875	4531.62109375	4511.60498046875	3658.458984375	4499.0693359375	3632.05126953125	3529.025390625	2712.475830078125	4409.75390625	3688.99609375	4049.8525390625	1010.410888671875	1844.78076171875	4936.03466796875	4222.1259765625	3128.676025390625	2136.53076171875	3906.40966796875	4555.08251953125	4579.013671875	4852.68359375	3355.839111328125	4203.6396484375	4063.68896484375	3670.915771484375	4405.220703125	3877.143310546875	4138.0556640625	4554.84814453125	4147.97119140625	3968.66748046875	4276.8359375	4454.39306640625	4633.86083984375	4639.162109375	4688.29638671875	5170.76708984375	4386.92626953125	4457.77734375	4287.52490234375	4672.07470703125	3795.85986328125	4683.7451171875	4318.04736328125	3987.910400390625	3961.992919921875	4264.51513671875	4705.59912109375	3597.331298828125	4741.5595703125	4224.18017578125	4316.45947265625	3637.76123046875	4391.11669921875	4404.82763671875	3740.872802734375	3927.752685546875	3632.296875	3900.53564453125	4290.6142578125	3871.4912109375	4405.4375	4318.001953125	4120.29736328125	3582.14892578125	3855.817626953125	4089.278564453125	4487.26025390625	4179.4423828125	4058.483642578125	5088.6337890625	3847.73388671875	4414.880859375	4107.12890625	4381.3447265625	3915.87744140625	4539.71533203125	4155.30029296875	3763.461181640625	3725.89990234375	3924.127197265625	4954.10498046875	3985.347412109375	4710.90283203125	4209.3828125
360	480	3080.24609375	3594.07470703125	4349.00146484375	4536.1240234375	3583.24072265625	4504.39111328125	3398.239013671875	3572.5927734375	3555.409912109375	3433.175048828125	2753.356689453125	4160.41650390625	3860.3525390625	4719.697265625	3061.775390625	3408.759521484375	4240.58447265625	4471.794921875	3670.891845703125	4513.2958984375	3536.928466796875	3246.842529296875	3144.092041015625	4197.4677734375	3478.00537109375	3621.6748046875	950.4574584960938	1821.4404296875	4436.35888671875	4146.68115234375	2965.499755859375	2181.1279296875	3839.335205078125	4093.51025390625	4157.27490234375	4255.93310546875	3094.021240234375	4052.25244140625	3725.00537109375	3548.472900390625	4113.041015625	3596.8681640625	4116.6318359375	4308.22314453125	3922.718505859375	3722.625732421875	3743.400146484375	4215.1953125	4388.80859375	4417.8232421875	4510.28515625	4970.72998046875	4188.9189453125	4406.74658203125	4220.2412109375	4415.65673828125	3601.25537109375	4458.43310546875	4149.10009765625	3689.807861328125	3715.370849609375	4019.40380859375	4487.1044921875	3567.256591796875	4592.45947265625	3915.11474609375	4237.49609375	3620.97412109375	4261.06298828125	3900.382568359375	3316.6328125	3668.27294921875	3417.13525390625	3566.5888671875	3967.69287109375	3584.806640625	4220.9228515625	3954.682373046875	3967.009521484375	3377.5927734375	3670.112548828125	4046.82958984375	4213.2041015625	4163.20263671875	3768.41259765625	4676.57568359375	3700.415771484375	4376.2958984375	4004.982177734375	4192.98388671875	3739.04833984375	4404.10791015625	4004.429931640625	3477.63720703125	3523.53955078125	3537.376220703125	4882.14697265625	3336.3515625	4710.55810546875	3903.0205078125
480	600	2942.1943359375	3336.301513671875	3990.083984375	4251.45556640625	3367.84814453125	4165.08447265625	3132.481201171875	3312.971435546875	3511.99755859375	3167.4697265625	2608.2890625	4618.1845703125	3495.518310546875	4060.131591796875	2896.680419921875	3326.294677734375	3965.86669921875	4244.1162109375	3290.504638671875	4240.16455078125	3542.1435546875	3234.751953125	3183.326904296875	3935.18701171875	3474.069580078125	3719.548583984375	963.79833984375	1809.561279296875	4166.8330078125	3983.424560546875	2787.08349609375	2268.18798828125	3475.063720703125	3662.021728515625	3938.204345703125	3954.897216796875	3021.16162109375	3746.413330078125	3452.992431640625	3336.04296875	3902.55029296875	3414.89306640625	3736.848388671875	3906.915283203125	3699.384033203125	3403.294677734375	3666.96923828125	4073.44287109375	4043.23291015625	4207.32470703125	4184.01953125	4428.56982421875	3938.145751953125	4049.5322265625	3920.28466796875	3932.59423828125	3520.6865234375	4204.4052734375	3894.460693359375	3514.64306640625	3504.937255859375	3686.237060546875	4093.245361328125	3265.231201171875	4105.75439453125	3756.22265625	3736.587890625	3408.6416015625	3908.70654296875	3595.280029296875	3009.900634765625	3532.54541015625	3163.80078125	3380.858154296875	3692.221435546875	3377.9033203125	3949.130126953125	3650.280029296875	3726.786376953125	3151.654296875	3569.967041015625	3649.906494140625	3859.186279296875	3806.00537109375	3404.89404296875	4271.53759765625	3415.91748046875	4037.6689453125	3723.410400390625	3933.6484375	3639.943603515625	4032.924560546875	3783.663818359375	3304.60888671875	3258.316162109375	3443.20166015625	4618.93603515625	3127.14501953125	4430.607421875	3691.2978515625
600	900	2712.78662109375	3197.537109375	3608.725341796875	3986.2265625	2902.515869140625	3533.161376953125	3213.387451171875	3284.835205078125	3287.4453125	3133.274658203125	2417.442138671875	3829.94873046875	3433.1123046875	4024.0947265625	2655.798583984375	3042.4248046875	3505.078857421875	3872.721435546875	3026.214111328125	3568.693115234375	3318.27587890625	3150.504638671875	3148.117919921875	3687.118896484375	3290.156005859375	3496.9609375	942.3347778320312	1803.6221923828125	3490.91064453125	3724.29833984375	2500.782958984375	2347.533935546875	3126.148681640625	3516.767578125	3518.7734375	3568.903076171875	2865.0	3373.50732421875	3108.85302734375	2987.778564453125	3454.100341796875	2947.142822265625	3375.2587890625	3419.988037109375	3422.115966796875	3097.21533203125	3180.3427734375	3473.538330078125	3555.3671875	3732.926513671875	3735.480712890625	3879.620361328125	3342.806640625	3532.375244140625	3436.052001953125	3558.70263671875	3393.955322265625	3700.4619140625	3458.37353515625	3066.62548828125	3141.66552734375	3232.1328125	3826.321044921875	3073.9072265625	3774.72509765625	3435.311767578125	3386.789306640625	3373.091796875	3450.060791015625	3213.455810546875	3106.96337890625	3200.405029296875	2878.05810546875	3044.23046875	3305.582763671875	3029.4150390625	3691.09375	3209.529541015625	3417.28955078125	2900.11181640625	3037.853759765625	3435.18896484375	3412.593505859375	3475.63720703125	3203.494140625	3675.17236328125	2984.6572265625	3665.248046875	3275.87451171875	3376.316650390625	3431.52392578125	3579.8642578125	3362.858154296875	2882.27685546875	2969.9833984375	2987.098388671875	4042.426025390625	3054.802001953125	3678.38671875	3380.280517578125
900	1200	2467.4755859375	2866.7451171875	3063.090576171875	3580.049072265625	2561.90966796875	3095.568115234375	2889.967529296875	3017.4228515625	2897.3076171875	3133.908935546875	2254.115478515625	3390.129150390625	3313.760498046875	3563.7890625	2406.7880859375	2747.606201171875	3044.52734375	3499.055908203125	2505.79052734375	3096.59033203125	3086.071044921875	2823.59033203125	2834.43505859375	3200.584228515625	3199.271240234375	3127.568359375	942.3050537109375	1779.02587890625	3037.0556640625	3467.57080078125	2210.790771484375	2427.865234375	2698.9208984375	2955.979248046875	2987.632568359375	2827.459228515625	2780.06494140625	2855.114501953125	2621.576416015625	2540.542236328125	2765.30908203125	2630.679443359375	3021.98583984375	2850.13623046875	3020.478515625	2632.255615234375	2932.6103515625	2828.2783203125	3067.51953125	3113.8388671875	3103.099853515625	3129.975341796875	2805.843017578125	2915.4150390625	2985.362548828125	2902.571044921875	2966.205322265625	3160.361572265625	2938.766845703125	2630.8505859375	2709.2314453125	2714.922607421875	3284.41162109375	2762.912353515625	3227.389892578125	3160.681640625	2702.380615234375	3029.67919921875	3059.299072265625	2796.6181640625	2804.5849609375	2845.220458984375	2518.454833984375	2665.60498046875	2874.034912109375	2679.429443359375	3128.43701171875	2713.7392578125	3063.669189453125	2556.363037109375	2612.95458984375	2968.03955078125	2904.532958984375	3104.59765625	2829.54296875	3022.11328125	2698.85302734375	3120.79833984375	2852.024169921875	2801.807373046875	3134.643310546875	3045.003662109375	2833.861328125	2479.34375	2621.4365234375	2544.845703125	3088.652099609375	2889.250732421875	3191.993408203125	3003.025390625
1200	1500	2240.181884765625	2640.7265625	2676.59423828125	3111.431640625	2229.0283203125	2702.782470703125	2822.18603515625	2863.258056640625	2659.096923828125	2681.1318359375	2028.02734375	2937.80810546875	3057.04736328125	3221.5244140625	2188.365478515625	2611.637451171875	2627.73193359375	3059.66845703125	2167.26025390625	2721.05859375	2775.0146484375	2693.855224609375	2631.48681640625	3056.001220703125	2989.44189453125	2811.157958984375	967.6162109375	1733.6072998046875	2632.627685546875	3221.93896484375	1962.56640625	2474.851318359375	2491.181884765625	2596.149658203125	2630.743408203125	2435.032958984375	2544.386474609375	2553.87353515625	2293.641357421875	2264.86181640625	2453.7158203125	2305.275390625	2678.73046875	2422.298583984375	2575.05126953125	2328.748779296875	2555.053955078125	2444.0341796875	2481.211181640625	2852.274658203125	2649.57470703125	2686.4794921875	2389.01318359375	2604.43115234375	2556.50927734375	2542.192138671875	2648.656494140625	2682.3330078125	2535.88818359375	2297.488037109375	2404.507568359375	2316.31201171875	2945.262939453125	2531.2998046875	2837.08984375	2729.43798828125	2357.30078125	2683.020263671875	2519.59326171875	2403.3056640625	2614.7705078125	2459.324462890625	2220.45849609375	2338.325927734375	2429.63818359375	2348.10107421875	2813.938720703125	2379.970458984375	2625.750732421875	2281.447021484375	2449.8955078125	2509.604248046875	2620.36669921875	2765.54443359375	2567.238525390625	2535.236572265625	2311.174560546875	2572.93701171875	2478.287109375	2357.4130859375	2817.851318359375	2618.2333984375	2452.7802734375	2173.337158203125	2267.542724609375	2264.566650390625	2663.648681640625	2568.279296875	2797.485107421875	2779.568603515625
1500	1800	2070.71337890625	2484.733154296875	2318.742919921875	2776.29443359375	2074.111328125	2302.57568359375	2392.487060546875	2634.2177734375	2411.4541015625	2372.407470703125	1862.4384765625	2529.697998046875	2774.888916015625	2842.4345703125	2026.029052734375	2369.124267578125	2322.649658203125	2833.152099609375	1981.918212890625	2398.384521484375	2472.933837890625	2363.70556640625	2366.779052734375	2700.827880859375	2702.869873046875	2600.42138671875	964.2382202148438	1701.16943359375	2284.89453125	2926.8017578125	1746.6495361328125	2485.69287109375	1979.4112548828125	2251.533935546875	2221.570556640625	2174.025634765625	2317.822509765625	2327.46044921875	2061.419189453125	2037.6201171875	2234.775146484375	2083.57861328125	2361.97705078125	2150.09033203125	2212.08154296875	2033.3590087890625	2311.498291015625	2169.392578125	2281.883056640625	2397.98681640625	2273.50048828125	2240.967041015625	2114.185302734375	2305.521728515625	2201.692138671875	2156.349365234375	2455.8505859375	2311.22021484375	2227.76611328125	1948.8575439453125	2086.982421875	2051.189208984375	2511.2705078125	2308.4599609375	2626.660888671875	2382.007080078125	2152.52734375	2432.202880859375	2209.451416015625	2100.2255859375	2339.245361328125	2231.852783203125	1978.0213623046875	2038.1014404296875	2114.21337890625	2077.447509765625	2419.423828125	2118.736083984375	2223.201904296875	2013.8956298828125	2057.02001953125	2248.47900390625	2185.1845703125	2348.230224609375	2213.3701171875	2233.339111328125	1974.8223876953125	2236.875244140625	2198.0517578125	2102.927734375	2472.052734375	2299.84130859375	2174.5654296875	1877.1771240234375	2093.763671875	1967.4588623046875	2313.15576171875	2231.01708984375	2506.703125	2479.23388671875
1800	2100	1913.185302734375	2314.568603515625	2111.06201171875	2494.03125	1828.0533447265625	2226.638671875	2396.93896484375	2517.83154296875	2242.223388671875	2196.343505859375	1725.840576171875	2140.810302734375	2683.351318359375	2631.704345703125	1877.4852294921875	2278.07177734375	2121.124755859375	2598.880126953125	1769.8641357421875	2166.036865234375	2312.805908203125	2232.335693359375	2087.412841796875	2531.90673828125	2583.98583984375	2512.73779296875	967.9793701171875	1681.29736328125	2157.927978515625	2753.298095703125	1606.74462890625	2484.1376953125	1904.630126953125	2079.96240234375	1958.1356201171875	1960.8299560546875	2112.85302734375	2040.511962890625	1842.7459716796875	1801.6370849609375	1958.0018310546875	1869.6666259765625	2201.51708984375	1921.2861328125	2061.263427734375	1890.5904541015625	2027.3087158203125	1960.9146728515625	1950.5604248046875	2308.546142578125	2022.1121826171875	2046.3739013671875	1823.993408203125	1966.8887939453125	1928.7462158203125	1918.244140625	2187.947021484375	2064.339599609375	1963.2301025390625	1752.083251953125	1876.5994873046875	1762.546875	2362.698974609375	2147.389892578125	2247.12255859375	2247.89892578125	1930.0709228515625	2074.421875	2015.052734375	1965.73583984375	2142.748779296875	2054.32275390625	1781.8856201171875	1797.3345947265625	1914.6778564453125	1896.5491943359375	2172.817138671875	1874.294189453125	2115.2978515625	1882.09912109375	1834.18017578125	2030.6553955078125	1968.7281494140625	2162.921142578125	2063.875732421875	1894.86767578125	1796.896240234375	1951.660888671875	1933.869873046875	1897.0423583984375	2223.966552734375	2079.10400390625	1878.9644775390625	1696.9967041015625	1917.700927734375	1818.776611328125	2189.429931640625	2214.7294921875	2204.256591796875	2223.9345703125
